01/02/2020,09:01,1.574,1.574,1.574,1.574, 978
01/02/2020,09:01,1.5747,1.5747,1.5747,1.5747, 2800
01/02/2020,09:03,1.5755,1.5765,1.5755,1.576, 4568
01/02/2020,09:04,1.583,1.583,1.583,1.583, 3438
01/02/2020,09:05,1.5875,1.5945,1.5875,1.589, 10008
01/02/2020,09:05,1.595,1.5975,1.595,1.597, 7275
01/02/2020,09:07,1.5915,1.592,1.589,1.589, 8528
01/02/2020,09:08,1.589,1.589,1.589,1.589, 3527
01/02/2020,09:19,1.5925,1.5975,1.5925,1.5975, 3607
01/02/2020,09:22,1.598,1.598,1.598,1.598, 1463
01/02/2020,09:26,1.599,1.5995,1.599,1.5995, 1113
01/02/2020,09:30,1.599,1.599,1.599,1.599, 390
01/02/2020,09:31,1.6,1.6,1.6,1.6, 1387
01/02/2020,09:34,1.598,1.6015,1.5975,1.5975, 6665
01/02/2020,09:40,1.5973,1.5973,1.5973,1.5973, 2000
01/02/2020,09:48,1.5975,1.5975,1.5965,1.5965, 2213
01/02/2020,09:51,1.5945,1.5945,1.5945,1.5945, 331
01/02/2020,09:51,1.5965,1.597,1.5965,1.597, 1443
01/02/2020,09:54,1.597,1.597,1.597,1.597, 876
01/02/2020,09:57,1.597,1.597,1.597,1.597, 477
01/02/2020,10:03,1.5965,1.5965,1.5965,1.5965, 81
01/02/2020,10:04,1.596,1.596,1.595,1.595, 5225
01/02/2020,10:04,1.595,1.595,1.595,1.595, 604
01/02/2020,10:06,1.596,1.596,1.596,1.596, 1584
01/02/2020,10:07,1.5965,1.5965,1.5965,1.5965, 761
01/02/2020,10:07,1.5965,1.5965,1.5965,1.5965, 157
01/02/2020,10:10,1.594,1.594,1.5915,1.5915, 5552
01/02/2020,10:11,1.588,1.5885,1.588,1.5885, 6813
01/02/2020,10:12,1.5885,1.5905,1.5885,1.5885, 4380
01/02/2020,10:13,1.591,1.591,1.591,1.591, 2465
01/02/2020,10:14,1.59,1.59,1.588,1.588, 7384
01/02/2020,10:17,1.585,1.585,1.585,1.585, 1104
01/02/2020,10:19,1.585,1.5875,1.585,1.5875, 11512
01/02/2020,10:22,1.5875,1.588,1.5875,1.588, 3199
01/02/2020,10:23,1.5885,1.5885,1.5885,1.5885, 377
01/02/2020,10:25,1.5865,1.5865,1.5865,1.5865, 6841
01/02/2020,10:27,1.5855,1.589,1.5855,1.589, 6747
01/02/2020,10:29,1.5885,1.5885,1.5885,1.5885, 989
01/02/2020,10:31,1.588,1.588,1.588,1.588, 1060
01/02/2020,10:32,1.587,1.587,1.587,1.587, 1198
01/02/2020,10:34,1.587,1.587,1.587,1.587, 1120
01/02/2020,10:36,1.589,1.589,1.589,1.589, 596
01/02/2020,10:41,1.589,1.589,1.589,1.589, 440
01/02/2020,10:42,1.589,1.589,1.589,1.589, 157
01/02/2020,10:42,1.59,1.5905,1.59,1.5905, 1797
01/02/2020,10:44,1.5905,1.5905,1.5905,1.5905, 7
01/02/2020,10:46,1.5905,1.591,1.5905,1.591, 1387
01/02/2020,10:47,1.59,1.59,1.59,1.59, 227
01/02/2020,10:50,1.588,1.588,1.588,1.588, 1390
01/02/2020,10:58,1.589,1.59,1.589,1.5895, 10374
01/02/2020,10:59,1.591,1.5915,1.59,1.59, 6711
01/02/2020,11:01,1.589,1.589,1.589,1.589, 232
01/02/2020,11:04,1.589,1.59,1.589,1.589, 5624
01/02/2020,11:08,1.5895,1.59,1.5895,1.59, 3893
01/02/2020,11:09,1.5905,1.5905,1.59,1.5905, 3720
01/02/2020,11:12,1.5925,1.596,1.5925,1.596, 6500
01/02/2020,11:13,1.595,1.595,1.595,1.595, 2503
01/02/2020,11:15,1.594,1.5945,1.594,1.5945, 3044
01/02/2020,11:15,1.594,1.595,1.594,1.595, 3600
01/02/2020,11:18,1.596,1.5965,1.596,1.5965, 777
01/02/2020,11:19,1.5965,1.597,1.5965,1.597, 1202
01/02/2020,11:20,1.5975,1.5975,1.5975,1.5975, 596
01/02/2020,11:22,1.5965,1.5965,1.5965,1.5965, 1500
01/02/2020,11:24,1.597,1.597,1.5965,1.5965, 3703
01/02/2020,11:26,1.5965,1.5965,1.596,1.596, 595
01/02/2020,11:26,1.5946,1.5946,1.5946,1.5946, 4200
01/02/2020,11:28,1.5955,1.5955,1.5955,1.5955, 3
01/02/2020,11:28,1.5955,1.597,1.5955,1.597, 4374
01/02/2020,11:29,1.5965,1.5965,1.5965,1.5965, 1793
01/02/2020,11:30,1.5965,1.5965,1.5965,1.5965, 1785
01/02/2020,11:32,1.5975,1.5975,1.5975,1.5975, 2250
01/02/2020,11:39,1.598,1.5985,1.598,1.5985, 1460
01/02/2020,11:39,1.598,1.598,1.598,1.598, 1000
01/02/2020,11:41,1.599,1.599,1.599,1.599, 1279
01/02/2020,11:41,1.598,1.598,1.598,1.598, 2000
01/02/2020,11:45,1.599,1.6005,1.599,1.6005, 8922
01/02/2020,11:46,1.5995,1.5995,1.5995,1.5995, 1612
01/02/2020,11:47,1.5995,1.6,1.5995,1.6, 1425
01/02/2020,11:49,1.5985,1.599,1.5985,1.599, 1962
01/02/2020,12:00,1.5999,1.5999,1.5999,1.5999, 4055
01/02/2020,12:04,1.5985,1.5985,1.5975,1.5975, 5821
01/02/2020,12:05,1.5975,1.5975,1.5955,1.5955, 4999
01/02/2020,12:06,1.5945,1.5945,1.594,1.594, 733
01/02/2020,12:07,1.5947,1.5947,1.5947,1.5947, 3629
01/02/2020,12:18,1.5938,1.5938,1.5938,1.5938, 340
01/02/2020,12:21,1.593,1.593,1.593,1.593, 1076
01/02/2020,12:25,1.592,1.592,1.592,1.592, 2353
01/02/2020,12:26,1.5945,1.5945,1.5935,1.5935, 13653
01/02/2020,12:29,1.592,1.592,1.5905,1.5905, 4577
01/02/2020,12:29,1.5905,1.591,1.5905,1.591, 3677
01/02/2020,12:31,1.5917,1.5917,1.5917,1.5917, 546
01/02/2020,12:33,1.5925,1.5925,1.5925,1.5925, 9
01/02/2020,12:35,1.5905,1.5905,1.5905,1.5905, 1020
01/02/2020,12:39,1.5905,1.5905,1.5905,1.5905, 2579
01/02/2020,12:43,1.5895,1.5895,1.5895,1.5895, 3446
01/02/2020,12:47,1.589,1.589,1.589,1.589, 253
01/02/2020,12:49,1.5885,1.589,1.5885,1.5885, 3373
01/02/2020,12:54,1.5895,1.5895,1.588,1.5885, 5942
01/02/2020,12:58,1.588,1.588,1.588,1.588, 3139
01/02/2020,13:03,1.5865,1.5865,1.5865,1.5865, 685
01/02/2020,13:07,1.588,1.589,1.588,1.589, 3956
01/02/2020,13:11,1.589,1.5895,1.5885,1.5885, 1556
01/02/2020,13:13,1.588,1.588,1.588,1.588, 111
01/02/2020,13:19,1.5885,1.5885,1.588,1.588, 3426
01/02/2020,13:20,1.5885,1.589,1.588,1.5885, 4212
01/02/2020,13:24,1.589,1.589,1.589,1.589, 409
01/02/2020,13:26,1.59,1.5915,1.59,1.5915, 2744
01/02/2020,13:30,1.5905,1.5905,1.5905,1.5905, 2045
01/02/2020,13:31,1.5885,1.5885,1.5885,1.5885, 906
01/02/2020,13:33,1.5895,1.5895,1.5895,1.5895, 797
01/02/2020,13:34,1.589,1.589,1.589,1.589, 268
01/02/2020,13:41,1.59,1.59,1.59,1.59, 2794
01/02/2020,13:42,1.59,1.59,1.59,1.59, 1823
01/02/2020,13:44,1.59,1.5905,1.59,1.5905, 1700
01/02/2020,13:45,1.591,1.591,1.591,1.591, 329
01/02/2020,13:48,1.592,1.593,1.592,1.593, 1540
01/02/2020,13:49,1.593,1.593,1.5915,1.5915, 8632
01/02/2020,13:50,1.5915,1.593,1.5915,1.593, 7279
01/02/2020,13:52,1.593,1.593,1.5925,1.5925, 2234
01/02/2020,13:52,1.592,1.592,1.592,1.592, 2012
01/02/2020,13:57,1.593,1.593,1.5915,1.592, 6060
01/02/2020,13:58,1.592,1.592,1.592,1.592, 319
01/02/2020,13:58,1.5925,1.5925,1.5925,1.5925, 797
01/02/2020,13:59,1.593,1.593,1.593,1.593, 935
01/02/2020,14:01,1.5935,1.594,1.5935,1.594, 11025
01/02/2020,14:09,1.5965,1.5965,1.5965,1.5965, 1271
01/02/2020,14:11,1.598,1.598,1.598,1.598, 797
01/02/2020,14:12,1.597,1.597,1.597,1.597, 4107
01/02/2020,14:13,1.5975,1.5975,1.5975,1.5975, 30
01/02/2020,14:15,1.5965,1.5965,1.5965,1.5965, 1
01/02/2020,14:16,1.5965,1.5965,1.5965,1.5965, 1254
01/02/2020,14:17,1.5975,1.5975,1.597,1.597, 6439
01/02/2020,14:17,1.5975,1.598,1.5975,1.598, 1522
01/02/2020,14:18,1.5985,1.5995,1.5985,1.5995, 2993
01/02/2020,14:20,1.5995,1.5995,1.5995,1.5995, 217
01/02/2020,14:21,1.6005,1.6005,1.6005,1.6005, 1086
01/02/2020,14:24,1.6015,1.6015,1.6015,1.6015, 2094
01/02/2020,14:25,1.6015,1.6015,1.6015,1.6015, 285
01/02/2020,14:27,1.601,1.601,1.601,1.601, 1864
01/02/2020,14:27,1.6005,1.6005,1.6005,1.6005, 200
01/02/2020,14:35,1.6015,1.6025,1.601,1.6025, 5503
01/02/2020,14:37,1.604,1.604,1.6025,1.6025, 2330
01/02/2020,14:38,1.6025,1.6025,1.6025,1.6025, 1025
01/02/2020,14:38,1.602,1.602,1.602,1.602, 1145
01/02/2020,14:42,1.6015,1.6015,1.6005,1.6005, 4740
01/02/2020,14:47,1.6005,1.6005,1.6005,1.6005, 100
01/02/2020,14:47,1.6005,1.6005,1.6005,1.6005, 62
01/02/2020,14:49,1.601,1.6015,1.601,1.601, 6099
01/02/2020,14:49,1.6007,1.6007,1.6007,1.6007, 2900
01/02/2020,14:51,1.6015,1.6015,1.6015,1.6015, 233
01/02/2020,14:52,1.6015,1.6015,1.6015,1.6015, 232
01/02/2020,14:53,1.601,1.601,1.5985,1.5985, 16002
01/02/2020,14:54,1.5975,1.598,1.5975,1.598, 745
01/02/2020,14:55,1.598,1.598,1.598,1.598, 232
01/02/2020,14:56,1.5985,1.5985,1.598,1.598, 5964
01/02/2020,14:57,1.598,1.5985,1.598,1.5985, 2940
01/02/2020,15:04,1.5985,1.5985,1.5985,1.5985, 19
01/02/2020,15:05,1.598,1.5985,1.598,1.5985, 3996
01/02/2020,15:06,1.5985,1.5985,1.5985,1.5985, 1159
01/02/2020,15:11,1.599,1.599,1.599,1.599, 855
01/02/2020,15:12,1.599,1.599,1.5985,1.5985, 5404
01/02/2020,15:13,1.5985,1.5985,1.5985,1.5985, 1161
01/02/2020,15:15,1.5985,1.5985,1.5985,1.5985, 411
01/02/2020,15:18,1.599,1.601,1.599,1.601, 21430
01/02/2020,15:21,1.601,1.601,1.6005,1.6005, 2478
01/02/2020,15:22,1.6005,1.6005,1.6,1.6, 2746
01/02/2020,15:23,1.6,1.6,1.6,1.6, 362
01/02/2020,15:24,1.601,1.601,1.599,1.599, 17619
01/02/2020,15:25,1.5985,1.599,1.5985,1.5985, 5532
01/02/2020,15:26,1.598,1.5985,1.598,1.5985, 2218
01/02/2020,15:27,1.599,1.6005,1.599,1.6005, 8489
01/02/2020,15:31,1.6,1.6,1.5995,1.5995, 2935
01/02/2020,15:32,1.5995,1.5995,1.5985,1.5985, 4751
01/02/2020,15:33,1.5985,1.5985,1.5985,1.5985, 1533
01/02/2020,15:34,1.598,1.599,1.598,1.599, 5854
01/02/2020,15:34,1.5995,1.5995,1.5995,1.5995, 3109
01/02/2020,15:35,1.5991,1.5991,1.599,1.599, 3432
01/02/2020,15:36,1.6,1.6,1.6,1.6, 703
01/02/2020,15:41,1.6,1.6007,1.6,1.6007, 4655
01/02/2020,15:42,1.601,1.601,1.601,1.601, 1
01/02/2020,15:43,1.6,1.6,1.5995,1.5995, 4033
01/02/2020,15:44,1.6,1.6,1.6,1.6, 2000
01/02/2020,15:46,1.5995,1.5995,1.599,1.599, 3792
01/02/2020,15:47,1.5993,1.5993,1.5993,1.5993, 1867
01/02/2020,15:49,1.599,1.599,1.5985,1.5985, 1894
01/02/2020,15:57,1.599,1.599,1.5985,1.5985, 1410
01/02/2020,15:57,1.5985,1.599,1.5985,1.599, 7555
01/02/2020,16:01,1.598,1.598,1.598,1.598, 3984
01/02/2020,16:05,1.599,1.599,1.598,1.5985, 14607
01/02/2020,16:06,1.599,1.6,1.599,1.6, 4414
01/02/2020,16:07,1.6005,1.6005,1.6005,1.6005, 222
01/02/2020,16:08,1.6005,1.602,1.6005,1.601, 23865
01/02/2020,16:09,1.6015,1.6015,1.6015,1.6015, 1000
01/02/2020,16:11,1.6015,1.6015,1.6015,1.6015, 1191
01/02/2020,16:12,1.6015,1.6015,1.601,1.601, 4250
01/02/2020,16:13,1.601,1.601,1.601,1.601, 115
01/02/2020,16:14,1.6013,1.602,1.6013,1.602, 2001
01/02/2020,16:14,1.601,1.601,1.6005,1.6005, 8859
01/02/2020,16:16,1.6005,1.6005,1.6,1.6, 4617
01/02/2020,16:16,1.6,1.6,1.5985,1.5985, 5120
01/02/2020,16:18,1.598,1.5985,1.598,1.598, 5543
01/02/2020,16:19,1.5975,1.5975,1.5975,1.5975, 1912
01/02/2020,16:21,1.5975,1.5975,1.5965,1.5965, 4289
01/02/2020,16:22,1.597,1.5985,1.597,1.5985, 7947
01/02/2020,16:22,1.5985,1.5985,1.5985,1.5985, 2
01/02/2020,16:24,1.599,1.601,1.599,1.601, 31771
01/02/2020,16:25,1.6015,1.6015,1.6015,1.6015, 5088
01/02/2020,16:25,1.601,1.601,1.601,1.601, 4509
01/02/2020,16:27,1.601,1.601,1.6005,1.6005, 2733
01/02/2020,16:28,1.601,1.601,1.601,1.601, 1777
01/02/2020,16:28,1.601,1.601,1.601,1.601, 166
01/02/2020,16:30,1.601,1.6025,1.601,1.6025, 57534
01/02/2020,16:31,1.602,1.602,1.601,1.601, 3852
01/02/2020,16:32,1.601,1.6015,1.601,1.6015, 5522
01/02/2020,16:33,1.601,1.601,1.601,1.601, 2258
01/02/2020,16:34,1.6005,1.6005,1.6005,1.6005, 5141
01/02/2020,16:35,1.6005,1.6005,1.6005,1.6005, 2182
01/02/2020,16:36,1.6005,1.6005,1.6005,1.6005, 520
01/02/2020,16:37,1.6005,1.6015,1.6005,1.601, 8860
01/02/2020,16:38,1.601,1.601,1.601,1.601, 520
01/02/2020,16:39,1.601,1.601,1.601,1.601, 520
01/02/2020,16:40,1.6015,1.6015,1.6015,1.6015, 877
01/02/2020,16:40,1.6015,1.6015,1.6015,1.6015, 1745
01/02/2020,16:44,1.602,1.6055,1.602,1.6055, 115966
01/02/2020,16:45,1.606,1.6065,1.606,1.6065, 3578
01/02/2020,16:45,1.607,1.607,1.607,1.607, 3369
01/02/2020,16:47,1.6065,1.6065,1.606,1.606, 6588
01/02/2020,16:49,1.605,1.605,1.604,1.6045, 14722
01/02/2020,16:50,1.6045,1.6045,1.6045,1.6045, 5810
01/02/2020,16:52,1.603,1.6055,1.603,1.6055, 8282
01/02/2020,16:56,1.6045,1.6045,1.6045,1.6045, 3424
01/02/2020,16:57,1.6045,1.605,1.6045,1.6045, 3609
01/02/2020,16:58,1.6045,1.6045,1.6045,1.6045, 715
01/02/2020,17:00,1.6045,1.6045,1.6045,1.6045, 500
01/02/2020,17:02,1.605,1.61,1.605,1.609, 13771
01/02/2020,17:03,1.61,1.61,1.61,1.61, 6202
01/02/2020,17:05,1.609,1.609,1.609,1.609, 2000
01/02/2020,17:05,1.61,1.61,1.6095,1.6095, 5356
01/02/2020,17:06,1.6085,1.609,1.6085,1.609, 6634
01/02/2020,17:08,1.61,1.611,1.6095,1.611, 7642
01/02/2020,17:10,1.6115,1.612,1.611,1.612, 10074
01/02/2020,17:10,1.6125,1.6125,1.6125,1.6125, 1069
01/02/2020,17:11,1.6123,1.6123,1.6123,1.6123, 3000
01/02/2020,17:13,1.612,1.612,1.611,1.611, 7836
01/02/2020,17:14,1.612,1.6125,1.612,1.6125, 910
01/02/2020,17:15,1.6115,1.612,1.6115,1.612, 6002
01/02/2020,17:15,1.6115,1.6125,1.6115,1.6125, 3993
01/02/2020,17:17,1.612,1.612,1.612,1.612, 2000
01/02/2020,17:18,1.612,1.612,1.612,1.612, 1071
01/02/2020,17:18,1.612,1.612,1.611,1.6115, 9447
01/02/2020,17:20,1.611,1.611,1.6105,1.6105, 6748
01/02/2020,17:21,1.6115,1.6115,1.6105,1.6105, 6083
01/02/2020,17:22,1.6105,1.6105,1.6095,1.6095, 6190
01/02/2020,17:22,1.61,1.6105,1.61,1.6105, 8850
01/02/2020,17:24,1.611,1.6125,1.611,1.6125, 15900
01/02/2020,17:25,1.6125,1.6125,1.612,1.612, 6636
01/02/2020,17:25,1.612,1.612,1.611,1.611, 7961
01/02/2020,17:27,1.611,1.6125,1.611,1.612, 9409
01/02/2020,17:28,1.612,1.612,1.6115,1.612, 3981
01/02/2020,17:29,1.612,1.6125,1.612,1.6125, 4592
01/02/2020,17:30,1.613,1.6135,1.613,1.6135, 4912
01/02/2020,17:30,1.613,1.6145,1.613,1.6145, 4967
01/02/2020,17:36,1.6115,1.6115,1.6115,1.6115, 850635
01/03/2020,09:01,1.6,1.6,1.6,1.6, 1238
01/03/2020,09:02,1.5927,1.5927,1.5927,1.5927, 1727
01/03/2020,09:03,1.593,1.6,1.593,1.598, 12348
01/03/2020,09:05,1.599,1.599,1.594,1.594, 10651
01/03/2020,09:06,1.5975,1.5975,1.594,1.594, 11824
01/03/2020,09:06,1.5965,1.5965,1.5965,1.5965, 676
01/03/2020,09:07,1.594,1.597,1.594,1.597, 32166
01/03/2020,09:09,1.595,1.596,1.594,1.596, 9918
01/03/2020,09:09,1.595,1.597,1.595,1.597, 2049
01/03/2020,09:17,1.598,1.598,1.598,1.598, 1523
01/03/2020,09:18,1.5975,1.6005,1.5975,1.6005, 8659
01/03/2020,09:19,1.5975,1.598,1.5975,1.598, 3660
01/03/2020,09:21,1.598,1.6006,1.598,1.6006, 17825
01/03/2020,09:21,1.5985,1.601,1.5985,1.601, 8303
01/03/2020,09:23,1.6005,1.6025,1.6005,1.602, 4265
01/03/2020,09:24,1.601,1.601,1.601,1.601, 1575
01/03/2020,09:25,1.5985,1.5985,1.5985,1.5985, 16050
01/03/2020,09:26,1.599,1.599,1.599,1.599, 1809
01/03/2020,09:29,1.5985,1.5985,1.5965,1.5965, 17839
01/03/2020,09:29,1.5935,1.5935,1.5935,1.5935, 916
01/03/2020,09:31,1.5905,1.5905,1.5875,1.5875, 2232
01/03/2020,09:32,1.5885,1.5885,1.587,1.587, 9660
01/03/2020,09:32,1.5855,1.5855,1.5855,1.5855, 2682
01/03/2020,09:35,1.5845,1.585,1.5845,1.585, 2864
01/03/2020,09:36,1.583,1.583,1.583,1.583, 3536
01/03/2020,09:37,1.581,1.5815,1.581,1.5815, 3274
01/03/2020,09:40,1.5845,1.5845,1.5845,1.5845, 4447
01/03/2020,09:46,1.5855,1.5855,1.583,1.583, 827
01/03/2020,09:48,1.5835,1.5835,1.5835,1.5835, 2
01/03/2020,09:50,1.585,1.585,1.5845,1.5845, 1244
01/03/2020,09:54,1.5845,1.5845,1.5845,1.5845, 2181
01/03/2020,09:56,1.583,1.583,1.583,1.583, 1629
01/03/2020,09:58,1.5808,1.5808,1.5795,1.5795, 3670
01/03/2020,09:59,1.5795,1.581,1.5795,1.581, 28625
01/03/2020,10:00,1.58,1.58,1.5775,1.5775, 6400
01/03/2020,10:01,1.5765,1.5765,1.5765,1.5765, 1352
01/03/2020,10:08,1.575,1.575,1.5745,1.5745, 7216
01/03/2020,10:09,1.573,1.573,1.5718,1.5718, 3004
01/03/2020,10:11,1.571,1.571,1.569,1.57, 13718
01/03/2020,10:11,1.57,1.57,1.57,1.57, 203
01/03/2020,10:12,1.569,1.569,1.5675,1.5675, 6001
01/03/2020,10:15,1.568,1.568,1.568,1.568, 7032
01/03/2020,10:16,1.567,1.567,1.567,1.567, 853
01/03/2020,10:22,1.567,1.567,1.566,1.566, 6309
01/03/2020,10:23,1.567,1.5695,1.5665,1.568, 5220
01/03/2020,10:26,1.572,1.572,1.572,1.572, 1610
01/03/2020,10:30,1.5745,1.577,1.5745,1.577, 28822
01/03/2020,10:31,1.577,1.5785,1.577,1.5785, 35069
01/03/2020,10:33,1.5775,1.5775,1.5765,1.5765, 1931
01/03/2020,10:33,1.578,1.5795,1.578,1.579, 4696
01/03/2020,10:39,1.578,1.578,1.578,1.578, 633
01/03/2020,10:43,1.5795,1.583,1.579,1.583, 34083
01/03/2020,10:44,1.5825,1.5825,1.5805,1.5805, 2531
01/03/2020,10:45,1.5808,1.5808,1.58,1.58, 6047
01/03/2020,10:45,1.581,1.581,1.581,1.581, 1165
01/03/2020,10:47,1.58,1.5805,1.578,1.578, 20835
01/03/2020,10:48,1.575,1.575,1.575,1.575, 1796
01/03/2020,10:48,1.5765,1.5765,1.5765,1.5765, 5000
01/03/2020,10:50,1.574,1.576,1.574,1.576, 346
01/03/2020,10:52,1.574,1.574,1.574,1.574, 1039
01/03/2020,10:53,1.574,1.574,1.5715,1.5715, 2386
01/03/2020,10:54,1.5715,1.5715,1.5715,1.5715, 1804
01/03/2020,10:55,1.5705,1.5705,1.5705,1.5705, 2270
01/03/2020,10:56,1.5705,1.5705,1.5695,1.5705, 4714
01/03/2020,10:56,1.5705,1.5765,1.5705,1.5765, 29182
01/03/2020,10:57,1.5735,1.5735,1.5735,1.5735, 800
01/03/2020,10:59,1.5705,1.5705,1.5705,1.5705, 2388
01/03/2020,10:59,1.5685,1.5685,1.5685,1.5685, 910
01/03/2020,11:00,1.568,1.568,1.568,1.568, 1402
01/03/2020,11:04,1.569,1.569,1.569,1.569, 5970
01/03/2020,11:06,1.5705,1.5705,1.5705,1.5705, 2000
01/03/2020,11:11,1.571,1.572,1.571,1.572, 3170
01/03/2020,11:15,1.574,1.574,1.5728,1.5728, 4225
01/03/2020,11:16,1.5715,1.5715,1.5715,1.5715, 1000
01/03/2020,11:20,1.5725,1.5725,1.5725,1.5725, 3925
01/03/2020,11:23,1.575,1.575,1.575,1.575, 1
01/03/2020,11:27,1.5755,1.5765,1.5755,1.5765, 4096
01/03/2020,11:27,1.575,1.575,1.575,1.575, 1150
01/03/2020,11:28,1.575,1.575,1.575,1.575, 1372
01/03/2020,11:31,1.576,1.576,1.576,1.576, 1004
01/03/2020,11:38,1.574,1.574,1.572,1.573, 13087
01/03/2020,11:40,1.572,1.572,1.57,1.57, 8474
01/03/2020,11:40,1.5705,1.5705,1.5705,1.5705, 4
01/03/2020,11:45,1.57,1.57,1.57,1.57, 3524
01/03/2020,11:48,1.5685,1.5685,1.5665,1.5665, 4067
01/03/2020,11:51,1.5665,1.5675,1.5665,1.5675, 760
01/03/2020,11:53,1.5665,1.5665,1.5665,1.5665, 800
01/03/2020,11:53,1.567,1.5675,1.567,1.5675, 1978
01/03/2020,11:55,1.5655,1.5665,1.565,1.565, 33061
01/03/2020,11:58,1.564,1.564,1.5635,1.5638, 9425
01/03/2020,11:59,1.562,1.562,1.5615,1.5615, 4457
01/03/2020,12:01,1.5605,1.5645,1.5605,1.5635, 22081
01/03/2020,12:02,1.5635,1.5635,1.5615,1.562, 18868
01/03/2020,12:03,1.5615,1.5615,1.5615,1.5615, 890
01/03/2020,12:04,1.5615,1.5615,1.5605,1.5605, 7468
01/03/2020,12:05,1.5595,1.5595,1.5595,1.5595, 846
01/03/2020,12:05,1.5595,1.5595,1.5575,1.5575, 1503
01/03/2020,12:07,1.557,1.557,1.557,1.557, 1056
01/03/2020,12:09,1.5585,1.5585,1.558,1.558, 3848
01/03/2020,12:09,1.56,1.56,1.56,1.56, 2375
01/03/2020,12:13,1.56,1.56,1.56,1.56, 875
01/03/2020,12:14,1.561,1.561,1.561,1.561, 3249
01/03/2020,12:16,1.5625,1.563,1.5625,1.563, 3171
01/03/2020,12:19,1.563,1.563,1.563,1.563, 1747
01/03/2020,12:21,1.564,1.565,1.564,1.565, 1654
01/03/2020,12:22,1.5635,1.5635,1.5635,1.5635, 1800
01/03/2020,12:25,1.5625,1.5625,1.5625,1.5625, 2820
01/03/2020,12:27,1.563,1.563,1.563,1.563, 3071
01/03/2020,12:29,1.5615,1.5615,1.561,1.5615, 3969
01/03/2020,12:32,1.559,1.559,1.559,1.559, 939
01/03/2020,12:41,1.558,1.561,1.5575,1.5605, 33257
01/03/2020,12:41,1.5605,1.5605,1.5605,1.5605, 3331
01/03/2020,12:42,1.5585,1.5585,1.5585,1.5585, 121
01/03/2020,12:44,1.5575,1.5575,1.5575,1.5575, 1886
01/03/2020,12:46,1.5565,1.5565,1.5565,1.5565, 955
01/03/2020,12:47,1.5565,1.5565,1.5565,1.5565, 1041
01/03/2020,12:51,1.558,1.5605,1.558,1.5605, 4282
01/03/2020,12:54,1.5585,1.5585,1.5585,1.5585, 1028
01/03/2020,12:56,1.5585,1.5585,1.5585,1.5585, 337
01/03/2020,12:57,1.5585,1.559,1.5585,1.559, 1939
01/03/2020,12:58,1.5595,1.5595,1.5595,1.5595, 941
01/03/2020,13:03,1.556,1.556,1.556,1.556, 2448
01/03/2020,13:04,1.5585,1.559,1.5555,1.5555, 11546
01/03/2020,13:05,1.5555,1.5555,1.5555,1.5555, 640
01/03/2020,13:06,1.557,1.557,1.557,1.557, 1618
01/03/2020,13:09,1.5555,1.5555,1.5555,1.5555, 2240
01/03/2020,13:12,1.5565,1.557,1.5565,1.557, 5268
01/03/2020,13:14,1.5565,1.5565,1.5565,1.5565, 3565
01/03/2020,13:15,1.558,1.558,1.558,1.558, 1657
01/03/2020,13:15,1.56,1.56,1.56,1.56, 6000
01/03/2020,13:23,1.5605,1.5605,1.5605,1.5605, 533
01/03/2020,13:31,1.56,1.56,1.56,1.56, 18
01/03/2020,13:33,1.5625,1.5625,1.5625,1.5625, 1513
01/03/2020,13:33,1.5645,1.565,1.5645,1.565, 2908
01/03/2020,13:35,1.568,1.568,1.568,1.568, 321
01/03/2020,13:37,1.5685,1.5685,1.5685,1.5685, 2000
01/03/2020,13:38,1.5705,1.5705,1.5705,1.5705, 300
01/03/2020,13:39,1.5705,1.5705,1.5705,1.5705, 1596
01/03/2020,13:41,1.572,1.572,1.572,1.572, 59
01/03/2020,13:42,1.5715,1.5735,1.5715,1.5735, 5225
01/03/2020,13:44,1.5755,1.5765,1.5755,1.5765, 4882
01/03/2020,13:46,1.575,1.575,1.575,1.575, 18
01/03/2020,13:49,1.577,1.577,1.5765,1.5765, 3209
01/03/2020,13:50,1.5775,1.578,1.5775,1.578, 4044
01/03/2020,13:53,1.5765,1.5775,1.576,1.5775, 3064
01/03/2020,13:54,1.5765,1.5765,1.5765,1.5765, 3909
01/03/2020,13:55,1.5765,1.5765,1.5715,1.5715, 3653
01/03/2020,13:55,1.57,1.57,1.57,1.57, 967
01/03/2020,13:59,1.569,1.569,1.569,1.569, 848
01/03/2020,14:01,1.5685,1.5685,1.5685,1.5685, 18
01/03/2020,14:03,1.571,1.571,1.571,1.571, 2129
01/03/2020,14:05,1.5715,1.5715,1.5715,1.5715, 1880
01/03/2020,14:06,1.5705,1.5705,1.5705,1.5705, 837
01/03/2020,14:07,1.5715,1.5715,1.5715,1.5715, 2230
01/03/2020,14:11,1.5705,1.5705,1.5705,1.5705, 286
01/03/2020,14:14,1.571,1.572,1.571,1.571, 4006
01/03/2020,14:18,1.571,1.571,1.571,1.571, 1736
01/03/2020,14:20,1.57,1.57,1.569,1.569, 3648
01/03/2020,14:22,1.5695,1.5695,1.569,1.569, 4338
01/03/2020,14:23,1.5685,1.569,1.5685,1.569, 1125
01/03/2020,14:26,1.569,1.5705,1.569,1.5705, 4209
01/03/2020,14:27,1.5715,1.572,1.5715,1.572, 3250
01/03/2020,14:35,1.571,1.571,1.571,1.571, 1810
01/03/2020,14:41,1.57,1.57,1.57,1.57, 2285
01/03/2020,14:42,1.5695,1.5695,1.5695,1.5695, 419
01/03/2020,14:44,1.571,1.571,1.571,1.571, 1134
01/03/2020,14:47,1.5715,1.5715,1.5715,1.5715, 346
01/03/2020,14:48,1.5715,1.5715,1.5715,1.5715, 65
01/03/2020,14:55,1.5735,1.5735,1.5735,1.5735, 219
01/03/2020,14:57,1.5745,1.5745,1.5745,1.5745, 829
01/03/2020,14:57,1.575,1.575,1.575,1.575, 1845
01/03/2020,15:00,1.575,1.575,1.575,1.575, 20
01/03/2020,15:08,1.5764,1.5764,1.5764,1.5764, 3166
01/03/2020,15:10,1.5735,1.574,1.573,1.573, 2922
01/03/2020,15:21,1.57,1.57,1.5695,1.5695, 1615
01/03/2020,15:24,1.5675,1.5675,1.5675,1.5675, 20
01/03/2020,15:28,1.5675,1.5675,1.5675,1.5675, 430
01/03/2020,15:32,1.5695,1.572,1.5695,1.572, 12764
01/03/2020,15:33,1.572,1.572,1.572,1.572, 2579
01/03/2020,15:34,1.572,1.573,1.572,1.573, 2229
01/03/2020,15:36,1.5725,1.5725,1.572,1.572, 2536
01/03/2020,15:37,1.5705,1.5705,1.57,1.57, 3869
01/03/2020,15:42,1.571,1.5715,1.571,1.5715, 6623
01/03/2020,15:42,1.5705,1.5705,1.5705,1.5705, 1297
01/03/2020,15:43,1.571,1.571,1.571,1.571, 508
01/03/2020,15:46,1.5705,1.5705,1.5705,1.5705, 902
01/03/2020,15:52,1.5725,1.5725,1.5725,1.5725, 6
01/03/2020,15:53,1.5718,1.5735,1.5718,1.5735, 4940
01/03/2020,15:56,1.5725,1.5725,1.5725,1.5725, 1515
01/03/2020,15:56,1.573,1.5745,1.573,1.5745, 7140
01/03/2020,15:57,1.575,1.577,1.575,1.577, 4673
01/03/2020,15:58,1.578,1.5785,1.578,1.5785, 3288
01/03/2020,16:01,1.5765,1.5775,1.575,1.5775, 25731
01/03/2020,16:01,1.5775,1.5775,1.5775,1.5775, 343
01/03/2020,16:03,1.58,1.58,1.5795,1.58, 11981
01/03/2020,16:03,1.5785,1.5785,1.5785,1.5785, 8612
01/03/2020,16:04,1.5805,1.5835,1.5805,1.582, 12939
01/03/2020,16:06,1.5815,1.5815,1.58,1.58, 2902
01/03/2020,16:06,1.5795,1.58,1.5785,1.5785, 5288
01/03/2020,16:11,1.5795,1.5795,1.5795,1.5795, 2275
01/03/2020,16:13,1.579,1.579,1.579,1.579, 2063
01/03/2020,16:13,1.58,1.58,1.58,1.58, 2210
01/03/2020,16:14,1.5805,1.5805,1.5805,1.5805, 6
01/03/2020,16:16,1.5798,1.5798,1.5798,1.5798, 1200
01/03/2020,16:17,1.579,1.579,1.579,1.579, 7051
01/03/2020,16:18,1.5795,1.5795,1.5795,1.5795, 5
01/03/2020,16:20,1.5782,1.5783,1.5782,1.5783, 18
01/03/2020,16:25,1.579,1.579,1.579,1.579, 1763
01/03/2020,16:25,1.5795,1.5795,1.5795,1.5795, 534
01/03/2020,16:27,1.5805,1.5805,1.5805,1.5805, 3360
01/03/2020,16:29,1.5835,1.5835,1.5835,1.5835, 803
01/03/2020,16:32,1.584,1.585,1.584,1.585, 3650
01/03/2020,16:33,1.5845,1.5848,1.5845,1.5848, 4291
01/03/2020,16:34,1.5855,1.587,1.5855,1.587, 12968
01/03/2020,16:35,1.587,1.5875,1.587,1.5875, 4258
01/03/2020,16:37,1.586,1.587,1.586,1.586, 9652
01/03/2020,16:41,1.586,1.586,1.586,1.586, 20
01/03/2020,16:46,1.586,1.5895,1.586,1.5885, 12628
01/03/2020,16:47,1.59,1.591,1.59,1.591, 8555
01/03/2020,16:48,1.591,1.591,1.59,1.59, 2403
01/03/2020,16:50,1.591,1.591,1.5905,1.5905, 4911
01/03/2020,16:55,1.591,1.5925,1.591,1.5925, 26102
01/03/2020,16:56,1.592,1.592,1.592,1.592, 1679
01/03/2020,16:58,1.5925,1.5925,1.5925,1.5925, 2480
01/03/2020,17:01,1.592,1.592,1.592,1.592, 2561
01/03/2020,17:02,1.5925,1.5925,1.592,1.592, 7494
01/03/2020,17:04,1.5915,1.5915,1.589,1.589, 8242
01/03/2020,17:04,1.5885,1.589,1.5875,1.5875, 4613
01/03/2020,17:06,1.5865,1.5865,1.586,1.586, 4556
01/03/2020,17:09,1.586,1.586,1.586,1.586, 2137
01/03/2020,17:10,1.586,1.586,1.586,1.586, 1690
01/03/2020,17:11,1.586,1.586,1.586,1.586, 279
01/03/2020,17:13,1.5855,1.587,1.5855,1.587, 9310
01/03/2020,17:13,1.587,1.587,1.587,1.587, 1440
01/03/2020,17:14,1.587,1.587,1.587,1.587, 69
01/03/2020,17:16,1.5865,1.5865,1.5865,1.5865, 816
01/03/2020,17:16,1.587,1.587,1.587,1.587, 53
01/03/2020,17:18,1.587,1.587,1.587,1.587, 1525
01/03/2020,17:21,1.587,1.5875,1.587,1.5875, 483
01/03/2020,17:23,1.5875,1.5875,1.5865,1.5865, 10940
01/03/2020,17:23,1.586,1.586,1.586,1.586, 4370
01/03/2020,17:26,1.5865,1.5875,1.5865,1.5875, 2027
01/03/2020,17:27,1.588,1.5885,1.588,1.5885, 1274
01/03/2020,17:28,1.5885,1.5885,1.5885,1.5885, 832
01/03/2020,17:28,1.5885,1.5885,1.588,1.588, 1411
01/03/2020,17:30,1.587,1.587,1.586,1.586, 5200
01/03/2020,17:36,1.596,1.596,1.596,1.596, 882102
01/06/2020,09:01,1.571,1.571,1.571,1.571, 7754
01/06/2020,09:03,1.5805,1.5805,1.5735,1.5735, 6971
01/06/2020,09:04,1.57,1.582,1.5625,1.578, 115895
01/06/2020,09:06,1.578,1.578,1.5745,1.5745, 8787
01/06/2020,09:07,1.57,1.571,1.57,1.571, 12212
01/06/2020,09:08,1.569,1.569,1.5685,1.5685, 5603
01/06/2020,09:09,1.568,1.568,1.5645,1.5645, 2235
01/06/2020,09:10,1.5665,1.5705,1.565,1.5705, 27084
01/06/2020,09:11,1.571,1.571,1.571,1.571, 2591
01/06/2020,09:12,1.573,1.573,1.573,1.573, 10000
01/06/2020,09:13,1.5735,1.5745,1.5715,1.5745, 27222
01/06/2020,09:15,1.5755,1.5785,1.574,1.5785, 24781
01/06/2020,09:17,1.58,1.5825,1.58,1.5825, 10284
01/06/2020,09:18,1.5855,1.5855,1.5855,1.5855, 811
01/06/2020,09:19,1.585,1.586,1.585,1.586, 2292
01/06/2020,09:20,1.585,1.585,1.585,1.585, 8646
01/06/2020,09:21,1.584,1.584,1.5835,1.5835, 10981
01/06/2020,09:22,1.582,1.584,1.582,1.584, 4274
01/06/2020,09:23,1.5825,1.583,1.5825,1.583, 13808
01/06/2020,09:24,1.581,1.581,1.581,1.581, 657
01/06/2020,09:25,1.5825,1.5825,1.5825,1.5825, 1741
01/06/2020,09:26,1.583,1.584,1.583,1.584, 4903
01/06/2020,09:27,1.5825,1.5825,1.578,1.578, 8348
01/06/2020,09:28,1.576,1.5785,1.576,1.5785, 30744
01/06/2020,09:29,1.5775,1.578,1.5765,1.578, 8749
01/06/2020,09:32,1.5785,1.579,1.5785,1.579, 1072
01/06/2020,09:33,1.5785,1.579,1.577,1.579, 11382
01/06/2020,09:33,1.5775,1.5775,1.576,1.5775, 6478
01/06/2020,09:38,1.576,1.576,1.576,1.576, 379
01/06/2020,09:39,1.5745,1.5745,1.574,1.5745, 3570
01/06/2020,09:39,1.5735,1.5735,1.5735,1.5735, 1575
01/06/2020,09:42,1.5735,1.5755,1.5725,1.5735, 67126
01/06/2020,09:43,1.574,1.575,1.574,1.575, 1261
01/06/2020,09:43,1.576,1.5765,1.576,1.5765, 538
01/06/2020,09:48,1.5745,1.576,1.5735,1.5735, 2321
01/06/2020,09:49,1.572,1.572,1.5705,1.5705, 6136
01/06/2020,09:51,1.569,1.569,1.569,1.569, 5825
01/06/2020,09:51,1.57,1.571,1.568,1.571, 14438
01/06/2020,09:53,1.571,1.572,1.571,1.5715, 4162
01/06/2020,09:55,1.572,1.572,1.5705,1.5705, 5344
01/06/2020,09:56,1.5715,1.572,1.5715,1.572, 496
01/06/2020,09:59,1.571,1.571,1.57,1.57, 9018
01/06/2020,10:01,1.572,1.5725,1.572,1.572, 2823
01/06/2020,10:03,1.573,1.5735,1.573,1.5735, 687
01/06/2020,10:06,1.575,1.575,1.574,1.575, 3405
01/06/2020,10:07,1.573,1.573,1.573,1.573, 269
01/06/2020,10:08,1.572,1.574,1.572,1.574, 8253
01/06/2020,10:09,1.5745,1.575,1.5745,1.575, 2153
01/06/2020,10:09,1.5755,1.5755,1.5755,1.5755, 1112
01/06/2020,10:11,1.576,1.5765,1.576,1.5765, 645
01/06/2020,10:11,1.5758,1.5758,1.5758,1.5758, 31
01/06/2020,10:21,1.5745,1.575,1.573,1.575, 7745
01/06/2020,10:22,1.5755,1.5755,1.5755,1.5755, 2848
01/06/2020,10:23,1.575,1.575,1.575,1.575, 342
01/06/2020,10:24,1.5735,1.5735,1.5725,1.5735, 3138
01/06/2020,10:24,1.574,1.574,1.574,1.574, 1260
01/06/2020,10:28,1.572,1.572,1.571,1.572, 6644
01/06/2020,10:30,1.571,1.571,1.57,1.57, 4521
01/06/2020,10:32,1.5705,1.5725,1.57,1.5725, 16427
01/06/2020,10:33,1.573,1.573,1.573,1.573, 4944
01/06/2020,10:33,1.5735,1.5735,1.5735,1.5735, 1575
01/06/2020,10:35,1.574,1.575,1.574,1.575, 3601
01/06/2020,10:36,1.576,1.576,1.576,1.576, 336
01/06/2020,10:37,1.576,1.576,1.5745,1.5745, 10431
01/06/2020,10:38,1.5745,1.5755,1.5745,1.5755, 2953
01/06/2020,10:40,1.5745,1.5745,1.5745,1.5745, 1046
01/06/2020,10:40,1.5745,1.5745,1.5745,1.5745, 339
01/06/2020,10:42,1.5745,1.576,1.574,1.576, 21434
01/06/2020,10:43,1.574,1.5765,1.574,1.5765, 11097
01/06/2020,10:43,1.576,1.576,1.575,1.5755, 15149
01/06/2020,10:44,1.5745,1.5745,1.573,1.574, 6506
01/06/2020,10:45,1.5725,1.5725,1.5695,1.57, 76261
01/06/2020,10:46,1.569,1.57,1.569,1.57, 38208
01/06/2020,10:47,1.57,1.57,1.5695,1.5695, 9604
01/06/2020,10:48,1.5695,1.571,1.5695,1.571, 77571
01/06/2020,10:50,1.571,1.5715,1.571,1.5715, 3637
01/06/2020,10:51,1.5725,1.5727,1.5725,1.5727, 6211
01/06/2020,10:52,1.5735,1.5735,1.5735,1.5735, 1690
01/06/2020,10:56,1.5755,1.5755,1.5745,1.5745, 16241
01/06/2020,10:57,1.576,1.5765,1.576,1.5765, 2990
01/06/2020,10:59,1.579,1.5805,1.579,1.5805, 6697
01/06/2020,11:00,1.581,1.5815,1.581,1.5815, 1764
01/06/2020,11:00,1.5805,1.581,1.5805,1.581, 15376
01/06/2020,11:01,1.5815,1.5815,1.581,1.581, 13932
01/06/2020,11:03,1.5805,1.581,1.5805,1.581, 3037
01/06/2020,11:03,1.582,1.582,1.582,1.582, 250
01/06/2020,11:07,1.58,1.5815,1.5795,1.5815, 28116
01/06/2020,11:08,1.5825,1.584,1.582,1.584, 11448
01/06/2020,11:09,1.585,1.585,1.585,1.585, 1687
01/06/2020,11:11,1.585,1.585,1.585,1.585, 9928
01/06/2020,11:12,1.586,1.586,1.586,1.586, 1264
01/06/2020,11:12,1.585,1.5855,1.5845,1.5855, 4858
01/06/2020,11:16,1.585,1.586,1.585,1.586, 6121
01/06/2020,11:17,1.585,1.5855,1.584,1.584, 7184
01/06/2020,11:21,1.5825,1.5825,1.581,1.581, 2457
01/06/2020,11:24,1.581,1.581,1.581,1.581, 3493
01/06/2020,11:27,1.579,1.579,1.579,1.579, 594
01/06/2020,11:32,1.58,1.58,1.58,1.58, 5354
01/06/2020,11:39,1.5805,1.5815,1.5805,1.5815, 4437
01/06/2020,11:40,1.581,1.581,1.581,1.581, 2811
01/06/2020,11:41,1.5805,1.5805,1.5805,1.5805, 1239
01/06/2020,11:42,1.58,1.5805,1.579,1.5805, 9839
01/06/2020,11:43,1.5805,1.5815,1.5805,1.5815, 6427
01/06/2020,11:47,1.5815,1.5815,1.581,1.581, 4961
01/06/2020,11:48,1.5815,1.5815,1.5815,1.5815, 8225
01/06/2020,11:49,1.582,1.583,1.582,1.583, 3949
01/06/2020,11:53,1.584,1.585,1.584,1.585, 7162
01/06/2020,11:59,1.5845,1.586,1.5845,1.586, 7870
01/06/2020,12:00,1.5855,1.5855,1.5855,1.5855, 1552
01/06/2020,12:01,1.5845,1.585,1.5845,1.585, 6148
01/06/2020,12:02,1.5855,1.5855,1.5855,1.5855, 966
01/06/2020,12:05,1.584,1.584,1.584,1.584, 3751
01/06/2020,12:06,1.5825,1.583,1.5825,1.583, 4985
01/06/2020,12:07,1.582,1.582,1.582,1.582, 349
01/06/2020,12:09,1.582,1.582,1.582,1.582, 319
01/06/2020,12:10,1.5825,1.5825,1.5825,1.5825, 1113
01/06/2020,12:13,1.5835,1.5835,1.5835,1.5835, 540
01/06/2020,12:13,1.5825,1.5825,1.5825,1.5825, 4716
01/06/2020,12:15,1.5825,1.5845,1.5825,1.5845, 6453
01/06/2020,12:15,1.5855,1.5855,1.5855,1.5855, 150
01/06/2020,12:16,1.5835,1.5835,1.5835,1.5835, 344
01/06/2020,12:21,1.5825,1.5825,1.5825,1.5825, 4253
01/06/2020,12:23,1.582,1.582,1.582,1.582, 760
01/06/2020,12:25,1.5815,1.5825,1.5805,1.5805, 6926
01/06/2020,12:26,1.582,1.582,1.582,1.582, 2919
01/06/2020,12:27,1.581,1.5825,1.58,1.5825, 27882
01/06/2020,12:27,1.583,1.5845,1.583,1.5845, 1358
01/06/2020,12:29,1.584,1.584,1.584,1.584, 1000
01/06/2020,12:30,1.5845,1.5855,1.5845,1.5855, 7120
01/06/2020,12:31,1.5855,1.5855,1.584,1.584, 393
01/06/2020,12:32,1.585,1.585,1.585,1.585, 999
01/06/2020,12:35,1.5845,1.5845,1.5845,1.5845, 3729
01/06/2020,12:38,1.585,1.585,1.585,1.585, 2611
01/06/2020,12:40,1.5845,1.5845,1.5845,1.5845, 1606
01/06/2020,12:41,1.585,1.585,1.585,1.585, 271
01/06/2020,12:43,1.585,1.5855,1.585,1.5855, 3282
01/06/2020,12:44,1.586,1.5865,1.586,1.5865, 2443
01/06/2020,12:53,1.5875,1.588,1.5875,1.588, 3162
01/06/2020,12:54,1.588,1.588,1.587,1.587, 6459
01/06/2020,12:56,1.5855,1.5855,1.5855,1.5855, 1535
01/06/2020,12:58,1.5865,1.587,1.5865,1.587, 2148
01/06/2020,13:00,1.5865,1.5865,1.5865,1.5865, 400
01/06/2020,13:00,1.587,1.587,1.587,1.587, 1304
01/06/2020,13:03,1.585,1.586,1.585,1.586, 3325
01/06/2020,13:04,1.586,1.586,1.586,1.586, 2800
01/06/2020,13:08,1.5855,1.5855,1.585,1.585, 2122
01/06/2020,13:09,1.585,1.585,1.585,1.585, 3165
01/06/2020,13:10,1.584,1.584,1.584,1.584, 2832
01/06/2020,13:12,1.584,1.584,1.584,1.584, 1627
01/06/2020,13:12,1.585,1.5855,1.585,1.5855, 6085
01/06/2020,13:15,1.585,1.585,1.585,1.585, 3648
01/06/2020,13:16,1.585,1.585,1.585,1.585, 879
01/06/2020,13:17,1.585,1.585,1.585,1.585, 1888
01/06/2020,13:17,1.585,1.585,1.585,1.585, 970
01/06/2020,13:19,1.5845,1.5845,1.584,1.584, 3013
01/06/2020,13:20,1.584,1.584,1.584,1.584, 1913
01/06/2020,13:22,1.583,1.583,1.583,1.583, 3133
01/06/2020,13:23,1.5825,1.583,1.582,1.582, 8884
01/06/2020,13:25,1.583,1.584,1.583,1.584, 2266
01/06/2020,13:28,1.5855,1.587,1.5855,1.587, 3387
01/06/2020,13:33,1.5865,1.5865,1.5865,1.5865, 2846
01/06/2020,13:36,1.5855,1.5855,1.5855,1.5855, 91
01/06/2020,13:38,1.587,1.587,1.587,1.587, 1517
01/06/2020,13:40,1.587,1.587,1.587,1.587, 1970
01/06/2020,13:43,1.5875,1.5875,1.5875,1.5875, 2637
01/06/2020,13:45,1.587,1.5875,1.587,1.5875, 5808
01/06/2020,13:47,1.588,1.589,1.588,1.588, 4084
01/06/2020,13:52,1.5885,1.5885,1.5885,1.5885, 1689
01/06/2020,13:55,1.5865,1.5865,1.5865,1.5865, 1500
01/06/2020,14:01,1.5865,1.5865,1.5865,1.5865, 3051
01/06/2020,14:02,1.5885,1.5885,1.5885,1.5885, 1743
01/06/2020,14:14,1.587,1.587,1.5865,1.587, 2525
01/06/2020,14:15,1.5875,1.5875,1.5875,1.5875, 1468
01/06/2020,14:15,1.5865,1.5865,1.5865,1.5865, 250
01/06/2020,14:21,1.587,1.587,1.587,1.587, 3560
01/06/2020,14:29,1.5865,1.5865,1.5865,1.5865, 4949
01/06/2020,14:34,1.586,1.586,1.5855,1.5855, 2570
01/06/2020,14:35,1.586,1.586,1.586,1.586, 2504
01/06/2020,14:37,1.5855,1.5865,1.5855,1.5865, 6590
01/06/2020,14:41,1.586,1.5875,1.586,1.587, 5568
01/06/2020,14:43,1.5865,1.589,1.586,1.5885, 33442
01/06/2020,14:44,1.59,1.59,1.5895,1.59, 5754
01/06/2020,14:47,1.5905,1.5905,1.5905,1.5905, 2758
01/06/2020,14:49,1.59,1.59,1.5885,1.59, 6486
01/06/2020,14:54,1.5885,1.5885,1.588,1.5885, 5219
01/06/2020,14:55,1.5885,1.5885,1.5885,1.5885, 1428
01/06/2020,15:01,1.587,1.587,1.5865,1.5865, 3668
01/06/2020,15:02,1.5875,1.5875,1.5865,1.5865, 7428
01/06/2020,15:03,1.5865,1.5865,1.5865,1.5865, 1749
01/06/2020,15:04,1.587,1.5875,1.587,1.5875, 2867
01/06/2020,15:07,1.5875,1.5875,1.587,1.587, 6638
01/06/2020,15:07,1.587,1.587,1.587,1.587, 1637
01/06/2020,15:09,1.5875,1.5875,1.5875,1.5875, 1787
01/06/2020,15:10,1.5865,1.5865,1.5865,1.5865, 2818
01/06/2020,15:11,1.587,1.588,1.587,1.588, 10435
01/06/2020,15:14,1.589,1.5895,1.589,1.5895, 6662
01/06/2020,15:15,1.59,1.59,1.59,1.59, 3533
01/06/2020,15:16,1.59,1.5915,1.5895,1.5915, 25047
01/06/2020,15:17,1.5918,1.5918,1.5918,1.5918, 2000
01/06/2020,15:18,1.591,1.591,1.591,1.591, 2665
01/06/2020,15:20,1.59,1.59,1.5895,1.59, 8125
01/06/2020,15:23,1.5898,1.5898,1.5898,1.5898, 981
01/06/2020,15:24,1.589,1.589,1.588,1.588, 2957
01/06/2020,15:26,1.5875,1.59,1.5875,1.59, 21720
01/06/2020,15:26,1.5905,1.5905,1.589,1.589, 16888
01/06/2020,15:30,1.588,1.588,1.5875,1.5875, 22996
01/06/2020,15:31,1.5875,1.5875,1.582,1.5835, 38516
01/06/2020,15:32,1.5825,1.5825,1.5795,1.58, 36340
01/06/2020,15:33,1.58,1.581,1.5795,1.58, 40650
01/06/2020,15:34,1.5815,1.5815,1.5815,1.5815, 4079
01/06/2020,15:35,1.582,1.582,1.582,1.582, 870
01/06/2020,15:36,1.582,1.5825,1.582,1.5825, 1048
01/06/2020,15:37,1.583,1.5835,1.583,1.5835, 1981
01/06/2020,15:38,1.5825,1.5825,1.5825,1.5825, 1349
01/06/2020,15:39,1.5835,1.584,1.5825,1.5825, 14308
01/06/2020,15:43,1.583,1.583,1.583,1.583, 866
01/06/2020,15:44,1.583,1.583,1.583,1.583, 724
01/06/2020,15:45,1.583,1.5835,1.583,1.5835, 1261
01/06/2020,15:45,1.5835,1.5835,1.5835,1.5835, 1102
01/06/2020,15:48,1.5815,1.5835,1.5815,1.5835, 4196
01/06/2020,15:49,1.584,1.584,1.584,1.584, 708
01/06/2020,15:51,1.5855,1.5855,1.5855,1.5855, 2525
01/06/2020,15:52,1.5865,1.5865,1.5865,1.5865, 1624
01/06/2020,15:55,1.5865,1.5865,1.5865,1.5865, 1330
01/06/2020,15:58,1.5865,1.5865,1.5845,1.5845, 10735
01/06/2020,16:01,1.5845,1.5845,1.5845,1.5845, 403
01/06/2020,16:03,1.5855,1.586,1.5855,1.586, 3186
01/06/2020,16:04,1.587,1.587,1.587,1.587, 272
01/06/2020,16:10,1.5865,1.5865,1.585,1.585, 6441
01/06/2020,16:12,1.5865,1.5865,1.586,1.586, 2870
01/06/2020,16:12,1.5875,1.5875,1.5875,1.5875, 854
01/06/2020,16:14,1.588,1.5885,1.588,1.5885, 5119
01/06/2020,16:15,1.587,1.587,1.587,1.587, 3107
01/06/2020,16:15,1.586,1.586,1.5845,1.5845, 11596
01/06/2020,16:17,1.5855,1.586,1.5855,1.586, 6579
01/06/2020,16:18,1.587,1.587,1.587,1.587, 865
01/06/2020,16:21,1.5865,1.5865,1.5865,1.5865, 10
01/06/2020,16:22,1.5875,1.5885,1.5875,1.5885, 6631
01/06/2020,16:23,1.5895,1.5895,1.5895,1.5895, 1213
01/06/2020,16:25,1.588,1.588,1.588,1.588, 7402
01/06/2020,16:28,1.5895,1.5895,1.589,1.5895, 6494
01/06/2020,16:29,1.5895,1.5895,1.5895,1.5895, 229
01/06/2020,16:30,1.5895,1.59,1.5895,1.59, 3553
01/06/2020,16:31,1.5905,1.5915,1.5905,1.5915, 3155
01/06/2020,16:33,1.5903,1.5903,1.5903,1.5903, 511
01/06/2020,16:34,1.591,1.5915,1.5905,1.5915, 6507
01/06/2020,16:35,1.591,1.591,1.591,1.591, 1983
01/06/2020,16:36,1.5915,1.592,1.5915,1.592, 3416
01/06/2020,16:37,1.592,1.592,1.592,1.592, 595
01/06/2020,16:38,1.5925,1.5925,1.5925,1.5925, 891
01/06/2020,16:38,1.5925,1.5925,1.5925,1.5925, 282
01/06/2020,16:40,1.591,1.592,1.591,1.591, 4029
01/06/2020,16:42,1.5925,1.5925,1.5925,1.5925, 10388
01/06/2020,16:43,1.5925,1.5925,1.5925,1.5925, 303
01/06/2020,16:51,1.591,1.5925,1.591,1.5925, 8023
01/06/2020,16:54,1.5915,1.5915,1.5905,1.5905, 6975
01/06/2020,16:55,1.59,1.59,1.59,1.59, 52
01/06/2020,16:56,1.5895,1.59,1.5895,1.5895, 8866
01/06/2020,16:57,1.588,1.588,1.588,1.588, 479
01/06/2020,17:00,1.5895,1.5895,1.589,1.5895, 6346
01/06/2020,17:09,1.5905,1.5905,1.5905,1.5905, 2777
01/06/2020,17:12,1.5895,1.5905,1.5895,1.5905, 2685
01/06/2020,17:13,1.5895,1.5895,1.589,1.589, 3810
01/06/2020,17:14,1.588,1.589,1.588,1.588, 15692
01/06/2020,17:15,1.587,1.587,1.587,1.587, 77
01/06/2020,17:16,1.587,1.588,1.587,1.5875, 5564
01/06/2020,17:17,1.588,1.588,1.588,1.588, 7075
01/06/2020,17:17,1.5885,1.5885,1.5885,1.5885, 1144
01/06/2020,17:20,1.588,1.588,1.588,1.588, 80
01/06/2020,17:21,1.589,1.589,1.589,1.589, 2277
01/06/2020,17:23,1.5885,1.5885,1.588,1.588, 7284
01/06/2020,17:24,1.589,1.589,1.587,1.587, 6777
01/06/2020,17:25,1.587,1.5875,1.587,1.5875, 3283
01/06/2020,17:26,1.588,1.589,1.5875,1.589, 7600
01/06/2020,17:27,1.5895,1.59,1.5895,1.59, 3672
01/06/2020,17:28,1.589,1.589,1.589,1.589, 2148
01/06/2020,17:29,1.5895,1.5904,1.589,1.5904, 3755
01/06/2020,17:30,1.589,1.5895,1.589,1.5895, 1586
01/06/2020,17:30,1.5885,1.59,1.5885,1.5895, 7656
01/06/2020,17:36,1.5875,1.5875,1.5875,1.5875, 910110
01/06/2020,17:39,1.5875,1.5875,1.5875,1.5875, 27570
01/07/2020,09:01,1.555,1.5675,1.554,1.562, 40274
01/07/2020,09:02,1.5695,1.5765,1.568,1.5765, 19129
01/07/2020,09:04,1.581,1.581,1.5795,1.5795, 11292
01/07/2020,09:05,1.5745,1.5745,1.574,1.574, 666
01/07/2020,09:06,1.57,1.5705,1.5695,1.5705, 3759
01/07/2020,09:07,1.571,1.571,1.5665,1.5665, 728
01/07/2020,09:07,1.567,1.568,1.5665,1.5665, 3199
01/07/2020,09:10,1.567,1.567,1.567,1.567, 2593
01/07/2020,09:16,1.5635,1.568,1.5635,1.5665, 17182
01/07/2020,09:16,1.569,1.571,1.569,1.5705, 7219
01/07/2020,09:18,1.5735,1.5765,1.5735,1.5765, 8000
01/07/2020,09:19,1.5785,1.5785,1.574,1.5745, 3009
01/07/2020,09:19,1.572,1.5725,1.5715,1.5715, 5176
01/07/2020,10:05,1.5655,1.567,1.5545,1.556, 85817
01/07/2020,10:06,1.5555,1.559,1.5555,1.5577, 21649
01/07/2020,10:07,1.5575,1.558,1.5555,1.5555, 16665
01/07/2020,10:08,1.554,1.554,1.5505,1.5505, 12463
01/07/2020,10:09,1.5535,1.555,1.5525,1.555, 10252
01/07/2020,10:11,1.553,1.5545,1.549,1.549, 17119
01/07/2020,10:12,1.549,1.5495,1.547,1.5495, 5782
01/07/2020,10:13,1.551,1.551,1.551,1.551, 1710
01/07/2020,10:14,1.55,1.55,1.5485,1.5495, 6468
01/07/2020,10:15,1.5475,1.5475,1.5445,1.5445, 6803
01/07/2020,10:16,1.547,1.549,1.5465,1.547, 4844
01/07/2020,10:17,1.5475,1.5475,1.5475,1.5475, 1100
01/07/2020,10:21,1.549,1.549,1.548,1.548, 5631
01/07/2020,10:22,1.548,1.549,1.546,1.549, 12198
01/07/2020,10:23,1.5495,1.5545,1.5495,1.5545, 41027
01/07/2020,10:24,1.553,1.5555,1.553,1.5555, 22177
01/07/2020,10:25,1.5565,1.557,1.555,1.557, 11461
01/07/2020,10:26,1.5565,1.5565,1.555,1.5555, 11852
01/07/2020,10:27,1.556,1.557,1.5555,1.5555, 4907
01/07/2020,10:29,1.556,1.5585,1.555,1.5585, 20152
01/07/2020,10:30,1.56,1.56,1.56,1.56, 1189
01/07/2020,10:31,1.56,1.56,1.557,1.56, 9089
01/07/2020,10:32,1.5605,1.5605,1.5605,1.5605, 191
01/07/2020,10:34,1.561,1.5615,1.5605,1.5605, 1581
01/07/2020,10:35,1.5605,1.561,1.5605,1.5605, 5538
01/07/2020,10:36,1.56,1.56,1.56,1.56, 5484
01/07/2020,10:37,1.5605,1.562,1.5605,1.562, 3874
01/07/2020,10:38,1.562,1.563,1.562,1.563, 3069
01/07/2020,10:40,1.5623,1.5623,1.5623,1.5623, 395
01/07/2020,10:41,1.5625,1.5625,1.5625,1.5625, 648
01/07/2020,10:42,1.562,1.5625,1.5605,1.5605, 5028
01/07/2020,10:43,1.562,1.562,1.562,1.562, 1833
01/07/2020,10:44,1.5615,1.563,1.5615,1.563, 1278
01/07/2020,10:45,1.5625,1.5625,1.5625,1.5625, 501
01/07/2020,10:46,1.562,1.563,1.5615,1.5625, 8315
01/07/2020,10:47,1.562,1.5625,1.56,1.56, 5345
01/07/2020,10:48,1.5585,1.5585,1.558,1.558, 1273
01/07/2020,10:49,1.559,1.5595,1.559,1.5595, 2893
01/07/2020,10:51,1.5585,1.5585,1.558,1.5585, 4829
01/07/2020,10:52,1.558,1.558,1.558,1.558, 243
01/07/2020,10:54,1.559,1.56,1.559,1.56, 2988
01/07/2020,10:55,1.5595,1.5595,1.5595,1.5595, 243
01/07/2020,10:59,1.5585,1.5585,1.5585,1.5585, 4691
01/07/2020,10:59,1.5575,1.5575,1.5575,1.5575, 2000
01/07/2020,11:01,1.5555,1.5555,1.554,1.554, 4926
01/07/2020,11:02,1.5545,1.555,1.5525,1.5525, 3917
01/07/2020,11:03,1.552,1.5528,1.552,1.5528, 6078
01/07/2020,11:04,1.5525,1.5535,1.5525,1.5535, 5186
01/07/2020,11:06,1.5545,1.5545,1.553,1.5545, 5655
01/07/2020,11:07,1.5545,1.5545,1.5535,1.5535, 11036
01/07/2020,11:08,1.5525,1.5525,1.552,1.552, 3827
01/07/2020,11:10,1.5525,1.554,1.5525,1.554, 7129
01/07/2020,11:15,1.554,1.554,1.553,1.553, 4533
01/07/2020,11:22,1.554,1.5545,1.553,1.554, 22902
01/07/2020,11:23,1.5535,1.555,1.5535,1.555, 2128
01/07/2020,11:24,1.555,1.555,1.5543,1.5543, 1101
01/07/2020,11:26,1.554,1.5575,1.553,1.5565, 16634
01/07/2020,11:27,1.5565,1.5565,1.5565,1.5565, 2000
01/07/2020,11:29,1.558,1.5585,1.558,1.5585, 3021
01/07/2020,11:31,1.558,1.5585,1.558,1.5585, 1947
01/07/2020,11:40,1.5595,1.5615,1.5595,1.5605, 5832
01/07/2020,11:41,1.562,1.564,1.562,1.564, 3965
01/07/2020,11:42,1.5615,1.5635,1.5615,1.5625, 13528
01/07/2020,11:43,1.5625,1.5625,1.5625,1.5625, 659
01/07/2020,11:44,1.5615,1.563,1.5615,1.563, 8807
01/07/2020,11:45,1.5615,1.5615,1.5615,1.5615, 460
01/07/2020,11:46,1.5615,1.5615,1.5615,1.5615, 2749
01/07/2020,11:48,1.562,1.562,1.562,1.562, 32
01/07/2020,11:49,1.562,1.563,1.562,1.563, 981
01/07/2020,11:50,1.563,1.565,1.563,1.565, 20434
01/07/2020,11:51,1.565,1.5655,1.565,1.5655, 608
01/07/2020,11:52,1.5655,1.5665,1.5655,1.566, 2789
01/07/2020,11:54,1.566,1.5665,1.566,1.5665, 366
01/07/2020,11:55,1.567,1.567,1.5665,1.5665, 1198
01/07/2020,11:56,1.566,1.566,1.5625,1.5625, 8520
01/07/2020,11:57,1.562,1.5625,1.562,1.5625, 3381
01/07/2020,12:00,1.5645,1.565,1.5645,1.565, 5989
01/07/2020,12:01,1.5635,1.5635,1.5635,1.5635, 911
01/07/2020,12:02,1.564,1.567,1.564,1.566, 7700
01/07/2020,12:03,1.5655,1.5675,1.5655,1.5675, 3711
01/07/2020,12:04,1.5675,1.5675,1.567,1.567, 667
01/07/2020,12:05,1.5675,1.5675,1.5675,1.5675, 941
01/07/2020,12:06,1.5665,1.5665,1.566,1.566, 5836
01/07/2020,12:07,1.567,1.5675,1.567,1.567, 1849
01/07/2020,12:09,1.5675,1.5675,1.5665,1.5665, 1577
01/07/2020,12:12,1.5675,1.5675,1.567,1.567, 301
01/07/2020,12:15,1.567,1.567,1.567,1.567, 517
01/07/2020,12:20,1.568,1.568,1.568,1.568, 1428
01/07/2020,12:22,1.568,1.5685,1.5635,1.5655, 18077
01/07/2020,12:23,1.5635,1.5635,1.562,1.5635, 9336
01/07/2020,12:25,1.5635,1.5635,1.5635,1.5635, 1229
01/07/2020,12:26,1.564,1.564,1.564,1.564, 592
01/07/2020,12:31,1.563,1.564,1.5625,1.5625, 8020
01/07/2020,12:32,1.561,1.561,1.561,1.561, 844
01/07/2020,12:33,1.56,1.5625,1.56,1.5625, 22377
01/07/2020,12:34,1.5622,1.5622,1.5622,1.5622, 1189
01/07/2020,12:35,1.5615,1.5615,1.561,1.561, 1050
01/07/2020,12:36,1.5608,1.5608,1.5608,1.5608, 811
01/07/2020,12:38,1.5585,1.5605,1.5585,1.5605, 69168
01/07/2020,12:41,1.56,1.5605,1.56,1.5605, 3989
01/07/2020,12:42,1.5605,1.5605,1.5605,1.5605, 1227
01/07/2020,12:43,1.561,1.5625,1.561,1.562, 5866
01/07/2020,12:44,1.562,1.562,1.562,1.562, 1657
01/07/2020,12:53,1.562,1.5625,1.562,1.562, 4455
01/07/2020,12:54,1.5625,1.5625,1.561,1.561, 7558
01/07/2020,12:55,1.5605,1.5605,1.56,1.56, 3310
01/07/2020,12:56,1.5615,1.5615,1.5615,1.5615, 326
01/07/2020,12:57,1.561,1.561,1.561,1.561, 1324
01/07/2020,12:58,1.56,1.56,1.5595,1.56, 3610
01/07/2020,12:59,1.5605,1.5605,1.56,1.5605, 2712
01/07/2020,13:00,1.5605,1.5605,1.56,1.56, 572
01/07/2020,13:03,1.5635,1.5635,1.5605,1.561, 6505
01/07/2020,13:04,1.5615,1.5625,1.5615,1.5625, 3067
01/07/2020,13:05,1.5625,1.5635,1.5625,1.5635, 1602
01/07/2020,13:06,1.5625,1.5625,1.5625,1.5625, 250
01/07/2020,13:12,1.5622,1.5622,1.5622,1.5622, 632
01/07/2020,13:14,1.562,1.562,1.5615,1.5615, 4339
01/07/2020,13:15,1.561,1.561,1.561,1.561, 4904
01/07/2020,13:17,1.5605,1.5605,1.5605,1.5605, 399
01/07/2020,13:18,1.5605,1.5605,1.5605,1.5605, 1871
01/07/2020,13:25,1.5595,1.561,1.5595,1.56, 11652
01/07/2020,13:27,1.5605,1.5605,1.5605,1.5605, 1321
01/07/2020,13:30,1.56,1.56,1.56,1.56, 1022
01/07/2020,13:31,1.56,1.5605,1.5595,1.5605, 15105
01/07/2020,13:32,1.5605,1.5605,1.56,1.56, 2953
01/07/2020,13:34,1.56,1.5605,1.56,1.5605, 4636
01/07/2020,13:36,1.5595,1.5605,1.5595,1.5605, 4248
01/07/2020,13:38,1.561,1.561,1.5605,1.561, 5913
01/07/2020,13:39,1.561,1.561,1.561,1.561, 968
01/07/2020,13:42,1.561,1.562,1.561,1.562, 4814
01/07/2020,13:44,1.561,1.561,1.558,1.56, 20475
01/07/2020,13:46,1.5555,1.556,1.555,1.556, 3801
01/07/2020,13:48,1.5535,1.5535,1.5535,1.5535, 2446
01/07/2020,13:49,1.553,1.5535,1.553,1.553, 5599
01/07/2020,13:50,1.5525,1.5565,1.5525,1.5565, 11505
01/07/2020,13:51,1.556,1.556,1.556,1.556, 256
01/07/2020,13:52,1.555,1.5565,1.5545,1.5565, 9249
01/07/2020,13:53,1.556,1.5565,1.556,1.5565, 1013
01/07/2020,13:54,1.556,1.556,1.5555,1.5555, 1303
01/07/2020,13:55,1.555,1.555,1.555,1.555, 2810
01/07/2020,13:58,1.5555,1.5555,1.5555,1.5555, 2219
01/07/2020,13:59,1.555,1.555,1.555,1.555, 1258
01/07/2020,14:01,1.5545,1.5545,1.5545,1.5545, 251
01/07/2020,14:03,1.553,1.553,1.553,1.553, 191
01/07/2020,14:04,1.553,1.553,1.553,1.553, 233
01/07/2020,14:05,1.552,1.552,1.552,1.552, 1180
01/07/2020,14:06,1.5525,1.553,1.5525,1.553, 1589
01/07/2020,14:07,1.5525,1.5525,1.552,1.552, 6210
01/07/2020,14:10,1.552,1.552,1.552,1.552, 890
01/07/2020,14:13,1.551,1.551,1.5505,1.5505, 1777
01/07/2020,14:16,1.5495,1.5495,1.5495,1.5495, 6000
01/07/2020,14:17,1.5485,1.549,1.5465,1.5485, 28914
01/07/2020,14:18,1.5485,1.5485,1.5485,1.5485, 255
01/07/2020,14:21,1.5485,1.5485,1.5485,1.5485, 233
01/07/2020,14:22,1.5485,1.549,1.5485,1.549, 5474
01/07/2020,14:23,1.5495,1.5495,1.5495,1.5495, 1699
01/07/2020,14:24,1.5495,1.5495,1.5495,1.5495, 227
01/07/2020,14:25,1.5495,1.55,1.5495,1.55, 2293
01/07/2020,14:26,1.55,1.552,1.55,1.552, 6350
01/07/2020,14:27,1.552,1.552,1.552,1.552, 84
01/07/2020,14:31,1.5525,1.5525,1.552,1.5525, 2588
01/07/2020,14:33,1.5515,1.5515,1.551,1.551, 7196
01/07/2020,14:34,1.551,1.551,1.551,1.551, 1800
01/07/2020,14:35,1.551,1.551,1.551,1.551, 2220
01/07/2020,14:36,1.551,1.552,1.551,1.5515, 6188
01/07/2020,14:38,1.552,1.552,1.552,1.552, 3638
01/07/2020,14:39,1.5515,1.5515,1.5515,1.5515, 1283
01/07/2020,14:40,1.551,1.551,1.551,1.551, 5871
01/07/2020,14:41,1.55,1.55,1.547,1.547, 6890
01/07/2020,14:42,1.5475,1.5475,1.5475,1.5475, 1636
01/07/2020,14:43,1.5465,1.5465,1.546,1.546, 2465
01/07/2020,14:45,1.5455,1.5455,1.5455,1.5455, 2443
01/07/2020,14:46,1.5455,1.547,1.5455,1.547, 15132
01/07/2020,14:51,1.5465,1.5467,1.5465,1.5467, 1575
01/07/2020,14:52,1.5468,1.5468,1.543,1.545, 41430
01/07/2020,14:53,1.542,1.543,1.541,1.541, 1222
01/07/2020,14:54,1.5415,1.5425,1.5415,1.5425, 17580
01/07/2020,14:55,1.543,1.5435,1.543,1.5435, 3123
01/07/2020,14:56,1.544,1.544,1.544,1.544, 189
01/07/2020,15:05,1.5435,1.5435,1.5435,1.5435, 1250
01/07/2020,15:07,1.5435,1.5435,1.543,1.543, 7495
01/07/2020,15:08,1.5425,1.5425,1.5425,1.5425, 1740
01/07/2020,15:09,1.5425,1.5425,1.5425,1.5425, 595
01/07/2020,15:14,1.5435,1.5435,1.5435,1.5435, 2638
01/07/2020,15:15,1.542,1.542,1.542,1.542, 4666
01/07/2020,15:16,1.5415,1.5425,1.54,1.5425, 37350
01/07/2020,15:17,1.5425,1.5425,1.542,1.542, 1565
01/07/2020,15:19,1.5415,1.5415,1.541,1.541, 4643
01/07/2020,15:20,1.542,1.542,1.542,1.542, 4067
01/07/2020,15:24,1.5425,1.543,1.5415,1.5415, 6166
01/07/2020,15:25,1.5405,1.5405,1.5395,1.5395, 5029
01/07/2020,15:31,1.539,1.539,1.5365,1.538, 21285
01/07/2020,15:32,1.538,1.5395,1.538,1.5395, 6842
01/07/2020,15:34,1.539,1.539,1.536,1.536, 11862
01/07/2020,15:35,1.5375,1.5385,1.5375,1.5375, 4338
01/07/2020,15:36,1.538,1.538,1.538,1.538, 154
01/07/2020,15:40,1.537,1.537,1.537,1.537, 774
01/07/2020,15:41,1.536,1.536,1.536,1.536, 841
01/07/2020,15:42,1.536,1.536,1.536,1.536, 879
01/07/2020,15:43,1.5365,1.539,1.5365,1.539, 11591
01/07/2020,15:44,1.539,1.539,1.537,1.537, 1893
01/07/2020,15:45,1.5365,1.5365,1.535,1.535, 10708
01/07/2020,15:48,1.5325,1.5325,1.532,1.532, 2768
01/07/2020,15:49,1.5305,1.5305,1.5305,1.5305, 6221
01/07/2020,15:51,1.5305,1.5305,1.5305,1.5305, 2565
01/07/2020,15:52,1.5295,1.5295,1.529,1.529, 1484
01/07/2020,15:53,1.529,1.529,1.5285,1.5285, 5905
01/07/2020,15:54,1.529,1.529,1.5275,1.528, 5111
01/07/2020,15:55,1.528,1.528,1.528,1.528, 90
01/07/2020,15:56,1.528,1.5285,1.528,1.5285, 687
01/07/2020,15:57,1.529,1.529,1.529,1.529, 520
01/07/2020,15:58,1.529,1.5305,1.529,1.5305, 11128
01/07/2020,15:59,1.5295,1.5295,1.529,1.529, 4650
01/07/2020,16:02,1.53,1.536,1.53,1.5355, 34460
01/07/2020,16:03,1.5355,1.5365,1.5355,1.5365, 2587
01/07/2020,16:05,1.5365,1.54,1.536,1.5397, 24026
01/07/2020,16:06,1.5395,1.5405,1.5395,1.5405, 4910
01/07/2020,16:07,1.54,1.54,1.54,1.54, 3781
01/07/2020,16:08,1.54,1.541,1.54,1.541, 10834
01/07/2020,16:09,1.541,1.541,1.541,1.541, 587
01/07/2020,16:10,1.5412,1.5412,1.5412,1.5412, 61
01/07/2020,16:11,1.5405,1.541,1.5405,1.541, 2592
01/07/2020,16:12,1.5415,1.5415,1.5415,1.5415, 2603
01/07/2020,16:14,1.5405,1.5415,1.5405,1.5415, 9481
01/07/2020,16:16,1.5415,1.5415,1.5415,1.5415, 3199
01/07/2020,16:17,1.541,1.542,1.541,1.542, 3660
01/07/2020,16:19,1.542,1.542,1.541,1.542, 5182
01/07/2020,16:20,1.541,1.542,1.541,1.542, 2561
01/07/2020,16:22,1.5415,1.542,1.5415,1.5415, 2599
01/07/2020,16:23,1.542,1.542,1.5415,1.542, 2460
01/07/2020,16:24,1.542,1.542,1.542,1.542, 2327
01/07/2020,16:25,1.542,1.542,1.542,1.542, 1014
01/07/2020,16:26,1.5415,1.542,1.5415,1.5415, 9557
01/07/2020,16:27,1.5415,1.5415,1.5405,1.5405, 4192
01/07/2020,16:28,1.541,1.542,1.541,1.542, 7894
01/07/2020,16:29,1.542,1.542,1.541,1.541, 1075
01/07/2020,16:30,1.542,1.5425,1.542,1.5425, 6077
01/07/2020,16:31,1.543,1.543,1.543,1.543, 3597
01/07/2020,16:32,1.5425,1.5425,1.541,1.541, 4608
01/07/2020,16:33,1.541,1.5415,1.541,1.5415, 5553
01/07/2020,16:34,1.5415,1.542,1.5415,1.542, 4014
01/07/2020,16:35,1.5425,1.5425,1.5425,1.5425, 1991
01/07/2020,16:37,1.5418,1.5418,1.5418,1.5418, 2737
01/07/2020,16:39,1.542,1.542,1.5405,1.542, 19106
01/07/2020,16:41,1.542,1.543,1.542,1.5425, 4524
01/07/2020,16:44,1.5415,1.5425,1.5405,1.5425, 12775
01/07/2020,16:45,1.5425,1.543,1.542,1.542, 3355
01/07/2020,16:46,1.542,1.542,1.542,1.542, 3964
01/07/2020,16:47,1.5425,1.544,1.5425,1.544, 13013
01/07/2020,16:48,1.544,1.544,1.544,1.544, 232
01/07/2020,16:56,1.543,1.543,1.543,1.543, 81
01/07/2020,16:58,1.5435,1.544,1.543,1.543, 4166
01/07/2020,17:00,1.543,1.543,1.543,1.543, 311
01/07/2020,17:01,1.543,1.5435,1.543,1.5435, 2056
01/07/2020,17:02,1.543,1.5435,1.543,1.5435, 8560
01/07/2020,17:03,1.544,1.545,1.544,1.545, 11205
01/07/2020,17:04,1.5455,1.546,1.5455,1.546, 5178
01/07/2020,17:06,1.546,1.5465,1.5455,1.5465, 8859
01/07/2020,17:08,1.546,1.546,1.546,1.546, 315
01/07/2020,17:10,1.546,1.5465,1.546,1.5465, 5659
01/07/2020,17:11,1.5465,1.5465,1.546,1.546, 2388
01/07/2020,17:12,1.5455,1.5455,1.544,1.544, 11561
01/07/2020,17:12,1.543,1.543,1.543,1.543, 1947
01/07/2020,17:14,1.5425,1.543,1.5415,1.5415, 13509
01/07/2020,17:15,1.5415,1.542,1.54,1.541, 138065
01/07/2020,17:16,1.542,1.542,1.541,1.542, 29019
01/07/2020,17:17,1.542,1.542,1.541,1.5415, 11874
01/07/2020,17:18,1.5405,1.5415,1.54,1.54, 56683
01/07/2020,17:19,1.541,1.542,1.541,1.542, 10431
01/07/2020,17:21,1.542,1.542,1.541,1.542, 8588
01/07/2020,17:22,1.542,1.5425,1.5415,1.5425, 3786
01/07/2020,17:23,1.5435,1.5435,1.5425,1.5425, 12054
01/07/2020,17:25,1.5425,1.5425,1.5425,1.5425, 2826
01/07/2020,17:27,1.542,1.542,1.5415,1.5415, 5834
01/07/2020,17:28,1.542,1.5435,1.542,1.5435, 9576
01/07/2020,17:29,1.5425,1.5425,1.5425,1.5425, 2565
01/07/2020,17:30,1.542,1.542,1.541,1.542, 10314
01/07/2020,17:36,1.5415,1.5415,1.5415,1.5415, 1055903
01/08/2020,09:01,1.5425,1.5565,1.5425,1.5425, 977
01/08/2020,09:02,1.5438,1.5452,1.5438,1.5452, 1831
01/08/2020,09:04,1.5375,1.538,1.5368,1.5368, 11210
01/08/2020,09:04,1.537,1.5395,1.537,1.5395, 3411
01/08/2020,09:09,1.54,1.54,1.5395,1.5395, 956
01/08/2020,09:12,1.5325,1.5325,1.5325,1.5325, 4000
01/08/2020,09:16,1.5305,1.533,1.5305,1.532, 9806
01/08/2020,09:17,1.533,1.533,1.533,1.533, 1852
01/08/2020,09:18,1.53,1.53,1.528,1.5295, 6743
01/08/2020,09:18,1.5295,1.5295,1.5295,1.5295, 6017
01/08/2020,09:20,1.533,1.536,1.533,1.536, 5557
01/08/2020,09:24,1.5365,1.5365,1.5365,1.5365, 111
01/08/2020,09:25,1.5355,1.5355,1.5355,1.5355, 330
01/08/2020,09:27,1.5365,1.5365,1.5365,1.5365, 110
01/08/2020,09:29,1.5362,1.5362,1.5362,1.5362, 1499
01/08/2020,09:31,1.537,1.537,1.537,1.537, 465
01/08/2020,09:34,1.5368,1.5368,1.5368,1.5368, 1662
01/08/2020,09:35,1.535,1.535,1.535,1.535, 114
01/08/2020,09:39,1.5425,1.5425,1.5415,1.5415, 1682
01/08/2020,09:40,1.5425,1.543,1.5425,1.543, 2805
01/08/2020,09:41,1.542,1.542,1.542,1.542, 152
01/08/2020,09:46,1.5395,1.5395,1.539,1.539, 740
01/08/2020,09:54,1.5385,1.5395,1.5385,1.5395, 4013
01/08/2020,09:55,1.54,1.54,1.54,1.54, 1873
01/08/2020,10:00,1.543,1.543,1.5425,1.5425, 3288
01/08/2020,10:01,1.5418,1.5435,1.5418,1.5435, 8353
01/08/2020,10:02,1.545,1.5465,1.545,1.5465, 9827
01/08/2020,10:04,1.5465,1.5465,1.546,1.546, 1117
01/08/2020,10:06,1.547,1.547,1.547,1.547, 481
01/08/2020,10:10,1.5468,1.5468,1.5468,1.5468, 2000
01/08/2020,10:11,1.546,1.5465,1.546,1.5465, 2974
01/08/2020,10:12,1.5455,1.5455,1.5455,1.5455, 183
01/08/2020,10:13,1.5455,1.5465,1.5455,1.5465, 772
01/08/2020,10:14,1.5475,1.5475,1.5475,1.5475, 452
01/08/2020,10:15,1.548,1.548,1.547,1.548, 5540
01/08/2020,10:16,1.5485,1.5495,1.548,1.5495, 5203
01/08/2020,10:17,1.5505,1.551,1.5505,1.551, 3848
01/08/2020,10:18,1.549,1.5495,1.549,1.5495, 3911
01/08/2020,10:21,1.5515,1.5515,1.551,1.551, 17102
01/08/2020,10:24,1.552,1.552,1.552,1.552, 194
01/08/2020,10:25,1.552,1.552,1.552,1.552, 1254
01/08/2020,10:27,1.55,1.55,1.549,1.549, 7110
01/08/2020,10:29,1.5485,1.549,1.5485,1.549, 5282
01/08/2020,10:30,1.549,1.5495,1.549,1.5495, 1520
01/08/2020,10:31,1.5505,1.551,1.5505,1.551, 4187
01/08/2020,10:32,1.5535,1.557,1.552,1.557, 63232
01/08/2020,10:33,1.5575,1.5585,1.5575,1.5585, 4642
01/08/2020,10:34,1.5575,1.5575,1.556,1.557, 3157
01/08/2020,10:35,1.556,1.556,1.556,1.556, 125
01/08/2020,10:36,1.557,1.5575,1.5565,1.5575, 4662
01/08/2020,10:37,1.5565,1.5565,1.556,1.556, 2141
01/08/2020,10:38,1.557,1.557,1.557,1.557, 1067
01/08/2020,10:39,1.558,1.558,1.558,1.558, 910
01/08/2020,10:44,1.5575,1.5575,1.5575,1.5575, 1000
01/08/2020,10:45,1.557,1.557,1.5565,1.5565, 3535
01/08/2020,10:46,1.556,1.556,1.5535,1.5535, 5989
01/08/2020,10:50,1.553,1.553,1.553,1.553, 1455
01/08/2020,10:50,1.5535,1.5535,1.5535,1.5535, 121
01/08/2020,10:52,1.552,1.552,1.552,1.552, 100
01/08/2020,10:54,1.553,1.5535,1.5515,1.552, 7029
01/08/2020,10:55,1.5535,1.5535,1.553,1.5535, 2060
01/08/2020,10:57,1.5535,1.5545,1.5535,1.5545, 2154
01/08/2020,10:59,1.5543,1.5543,1.5543,1.5543, 61
01/08/2020,11:01,1.554,1.554,1.5535,1.5535, 6764
01/08/2020,11:02,1.5535,1.5535,1.553,1.553, 1356
01/08/2020,11:03,1.5525,1.5525,1.5505,1.5505, 2675
01/08/2020,11:04,1.551,1.551,1.551,1.551, 130
01/08/2020,11:05,1.551,1.551,1.55,1.55, 4091
01/08/2020,11:06,1.552,1.553,1.551,1.552, 11826
01/08/2020,11:09,1.554,1.554,1.554,1.554, 2583
01/08/2020,11:12,1.553,1.553,1.553,1.553, 852
01/08/2020,11:17,1.554,1.554,1.554,1.554, 4653
01/08/2020,11:17,1.553,1.553,1.5525,1.5525, 2372
01/08/2020,11:19,1.5515,1.5515,1.5515,1.5515, 1518
01/08/2020,11:20,1.5505,1.5505,1.5505,1.5505, 57
01/08/2020,11:22,1.551,1.551,1.551,1.551, 3743
01/08/2020,11:22,1.5505,1.5505,1.5505,1.5505, 147
01/08/2020,11:24,1.55,1.55,1.55,1.55, 146
01/08/2020,11:25,1.5515,1.5515,1.551,1.551, 6173
01/08/2020,11:27,1.5505,1.5505,1.5505,1.5505, 798
01/08/2020,11:31,1.5515,1.552,1.5515,1.552, 3884
01/08/2020,11:32,1.5525,1.5525,1.552,1.5525, 3593
01/08/2020,11:33,1.552,1.552,1.552,1.552, 1014
01/08/2020,11:34,1.5523,1.5523,1.5523,1.5523, 1663
01/08/2020,11:37,1.551,1.551,1.5505,1.5505, 1027
01/08/2020,11:44,1.55,1.5515,1.55,1.5515, 8181
01/08/2020,11:48,1.5515,1.5515,1.5515,1.5515, 3052
01/08/2020,11:50,1.5512,1.552,1.5512,1.552, 1255
01/08/2020,11:51,1.55,1.5505,1.55,1.55, 9357
01/08/2020,11:55,1.5475,1.5475,1.547,1.547, 741
01/08/2020,11:56,1.548,1.5485,1.548,1.5485, 3877
01/08/2020,12:13,1.5478,1.5478,1.5478,1.5478, 337
01/08/2020,12:15,1.5485,1.551,1.5485,1.55, 10227
01/08/2020,12:18,1.5515,1.5515,1.551,1.551, 6082
01/08/2020,12:22,1.551,1.551,1.551,1.551, 5684
01/08/2020,12:24,1.55,1.5505,1.55,1.5505, 1203
01/08/2020,12:25,1.55,1.55,1.549,1.549, 759
01/08/2020,12:29,1.5495,1.5495,1.5495,1.5495, 784
01/08/2020,12:30,1.55,1.55,1.549,1.549, 3999
01/08/2020,12:31,1.55,1.55,1.55,1.55, 686
01/08/2020,12:37,1.5495,1.5495,1.5495,1.5495, 1674
01/08/2020,12:38,1.549,1.549,1.5485,1.5485, 527
01/08/2020,12:38,1.5495,1.55,1.5495,1.55, 4076
01/08/2020,12:41,1.5495,1.5495,1.5495,1.5495, 86
01/08/2020,12:47,1.5505,1.551,1.5505,1.551, 8775
01/08/2020,12:48,1.55,1.55,1.5495,1.55, 2822
01/08/2020,12:50,1.5495,1.5495,1.5495,1.5495, 3542
01/08/2020,12:51,1.55,1.5515,1.55,1.5515, 10473
01/08/2020,12:53,1.5515,1.5515,1.551,1.551, 2322
01/08/2020,12:54,1.5505,1.5505,1.55,1.55, 5914
01/08/2020,12:54,1.551,1.552,1.551,1.552, 1636
01/08/2020,12:56,1.551,1.5515,1.551,1.5515, 6071
01/08/2020,12:58,1.552,1.5525,1.552,1.5525, 788
01/08/2020,13:00,1.552,1.552,1.5515,1.5515, 2153
01/08/2020,13:03,1.555,1.555,1.555,1.555, 4034
01/08/2020,13:04,1.5522,1.5522,1.5522,1.5522, 4000
01/08/2020,13:07,1.5525,1.5525,1.5525,1.5525, 1204
01/08/2020,13:08,1.552,1.552,1.552,1.552, 624
01/08/2020,13:08,1.5515,1.5515,1.5515,1.5515, 591
01/08/2020,13:12,1.552,1.552,1.5515,1.552, 9019
01/08/2020,13:13,1.5515,1.5515,1.551,1.551, 367
01/08/2020,13:15,1.55,1.55,1.5495,1.5495, 3382
01/08/2020,13:17,1.549,1.549,1.549,1.549, 2000
01/08/2020,13:18,1.549,1.549,1.5485,1.5485, 4408
01/08/2020,13:19,1.549,1.549,1.549,1.549, 715
01/08/2020,13:20,1.5495,1.55,1.5495,1.5495, 9298
01/08/2020,13:21,1.551,1.551,1.551,1.551, 5919
01/08/2020,13:28,1.552,1.552,1.552,1.552, 1490
01/08/2020,13:29,1.552,1.552,1.5515,1.5515, 1455
01/08/2020,13:36,1.5515,1.5515,1.55,1.55, 9412
01/08/2020,13:37,1.5495,1.5515,1.549,1.5515, 32826
01/08/2020,13:38,1.552,1.554,1.552,1.554, 9305
01/08/2020,13:41,1.5545,1.5545,1.5545,1.5545, 4105
01/08/2020,13:44,1.554,1.554,1.553,1.553, 21042
01/08/2020,13:47,1.553,1.553,1.55,1.55, 93939
01/08/2020,13:49,1.551,1.5515,1.551,1.551, 6989
01/08/2020,13:51,1.552,1.552,1.552,1.552, 786
01/08/2020,13:52,1.5525,1.5535,1.5525,1.5535, 4578
01/08/2020,13:53,1.553,1.553,1.553,1.553, 2916
01/08/2020,13:55,1.5535,1.5535,1.5535,1.5535, 424
01/08/2020,13:56,1.553,1.553,1.5495,1.5495, 22172
01/08/2020,13:57,1.5495,1.5495,1.5495,1.5495, 600
01/08/2020,13:58,1.5495,1.5495,1.549,1.549, 5408
01/08/2020,13:58,1.5495,1.5495,1.5495,1.5495, 680
01/08/2020,14:01,1.55,1.55,1.55,1.55, 3420
01/08/2020,14:02,1.551,1.551,1.55,1.55, 8844
01/08/2020,14:07,1.5515,1.5515,1.5515,1.5515, 3017
01/08/2020,14:09,1.551,1.551,1.551,1.551, 565
01/08/2020,14:10,1.5505,1.5505,1.5495,1.5495, 17615
01/08/2020,14:16,1.5505,1.5505,1.55,1.55, 5516
01/08/2020,14:18,1.5515,1.5515,1.551,1.5515, 2870
01/08/2020,14:19,1.5515,1.5515,1.5515,1.5515, 2016
01/08/2020,14:21,1.552,1.553,1.552,1.553, 4873
01/08/2020,14:23,1.5535,1.5535,1.5525,1.5525, 11157
01/08/2020,14:24,1.5515,1.5515,1.5515,1.5515, 197
01/08/2020,14:26,1.5515,1.5515,1.5515,1.5515, 197
01/08/2020,14:28,1.5525,1.5525,1.5525,1.5525, 2699
01/08/2020,14:29,1.553,1.553,1.553,1.553, 2649
01/08/2020,14:30,1.5535,1.5535,1.5535,1.5535, 197
01/08/2020,14:30,1.5545,1.5545,1.5545,1.5545, 1677
01/08/2020,14:33,1.5555,1.5555,1.5555,1.5555, 4255
01/08/2020,14:34,1.556,1.556,1.5555,1.5555, 1556
01/08/2020,14:36,1.5555,1.5555,1.5555,1.5555, 2049
01/08/2020,14:38,1.5545,1.5545,1.5545,1.5545, 584
01/08/2020,14:41,1.5535,1.5535,1.5535,1.5535, 763
01/08/2020,14:43,1.5515,1.5515,1.5515,1.5515, 119
01/08/2020,14:43,1.5515,1.5515,1.5515,1.5515, 119
01/08/2020,14:45,1.551,1.551,1.5485,1.55, 10113
01/08/2020,14:48,1.5493,1.5493,1.5493,1.5493, 259
01/08/2020,14:49,1.5485,1.5485,1.5445,1.545, 12315
01/08/2020,14:50,1.545,1.5475,1.5445,1.545, 29583
01/08/2020,14:50,1.545,1.545,1.545,1.545, 6850
01/08/2020,14:52,1.545,1.545,1.545,1.545, 103
01/08/2020,14:53,1.546,1.547,1.546,1.5465, 15438
01/08/2020,14:54,1.547,1.547,1.547,1.547, 208
01/08/2020,14:57,1.547,1.5495,1.547,1.5495, 9754
01/08/2020,14:59,1.5495,1.5495,1.5495,1.5495, 3260
01/08/2020,15:00,1.5495,1.5495,1.5495,1.5495, 1002
01/08/2020,15:02,1.549,1.549,1.5485,1.549, 6029
01/08/2020,15:04,1.549,1.549,1.549,1.549, 3092
01/08/2020,15:10,1.548,1.548,1.548,1.548, 496
01/08/2020,15:17,1.5485,1.5485,1.5485,1.5485, 958
01/08/2020,15:19,1.548,1.548,1.5475,1.5475, 2670
01/08/2020,15:24,1.548,1.5495,1.548,1.5495, 21551
01/08/2020,15:26,1.549,1.55,1.549,1.55, 30880
01/08/2020,15:27,1.5495,1.5495,1.5495,1.5495, 10290
01/08/2020,15:28,1.5488,1.5488,1.5488,1.5488, 241
01/08/2020,15:31,1.5485,1.5485,1.5475,1.5475, 6807
01/08/2020,15:32,1.5475,1.548,1.5475,1.548, 2782
01/08/2020,15:33,1.5475,1.5485,1.5475,1.5485, 3615
01/08/2020,15:34,1.549,1.549,1.549,1.549, 6209
01/08/2020,15:36,1.549,1.549,1.5485,1.5485, 1956
01/08/2020,15:40,1.5495,1.5495,1.5495,1.5495, 6119
01/08/2020,15:41,1.5495,1.5495,1.5492,1.5492, 3722
01/08/2020,15:42,1.55,1.5505,1.55,1.55, 17473
01/08/2020,15:43,1.5495,1.55,1.5495,1.55, 5033
01/08/2020,15:44,1.5495,1.5495,1.5495,1.5495, 2984
01/08/2020,15:46,1.55,1.551,1.55,1.55, 56125
01/08/2020,15:48,1.55,1.55,1.55,1.55, 2700
01/08/2020,15:48,1.55,1.55,1.55,1.55, 2336
01/08/2020,15:50,1.55,1.5505,1.55,1.5505, 7915
01/08/2020,15:51,1.5505,1.5505,1.5505,1.5505, 2000
01/08/2020,15:53,1.5505,1.5505,1.5505,1.5505, 1389
01/08/2020,15:54,1.551,1.551,1.551,1.551, 8025
01/08/2020,15:56,1.5515,1.5515,1.5515,1.5515, 9722
01/08/2020,15:58,1.552,1.552,1.552,1.552, 1524
01/08/2020,15:59,1.5525,1.553,1.552,1.552, 6985
01/08/2020,16:00,1.5505,1.551,1.5505,1.551, 4822
01/08/2020,16:02,1.551,1.551,1.551,1.551, 4534
01/08/2020,16:03,1.5515,1.553,1.5515,1.553, 8259
01/08/2020,16:05,1.553,1.553,1.5515,1.5515, 2433
01/08/2020,16:06,1.552,1.552,1.552,1.552, 1283
01/08/2020,16:07,1.552,1.552,1.552,1.552, 728
01/08/2020,16:08,1.551,1.551,1.551,1.551, 288
01/08/2020,16:12,1.5505,1.5505,1.5505,1.5505, 56
01/08/2020,16:13,1.5515,1.552,1.5515,1.5517, 7417
01/08/2020,16:16,1.552,1.5525,1.552,1.5525, 229
01/08/2020,16:20,1.552,1.552,1.5515,1.5515, 15736
01/08/2020,16:22,1.552,1.552,1.552,1.552, 176
01/08/2020,16:23,1.5525,1.5525,1.5525,1.5525, 5293
01/08/2020,16:24,1.553,1.553,1.5525,1.5525, 5757
01/08/2020,16:25,1.5525,1.5525,1.5525,1.5525, 387
01/08/2020,16:26,1.552,1.552,1.552,1.552, 190
01/08/2020,16:27,1.552,1.552,1.552,1.552, 190
01/08/2020,16:30,1.5515,1.5515,1.5515,1.5515, 5070
01/08/2020,16:31,1.551,1.5515,1.551,1.551, 9186
01/08/2020,16:32,1.5505,1.551,1.55,1.5505, 17102
01/08/2020,16:33,1.5505,1.5505,1.5505,1.5505, 2980
01/08/2020,16:34,1.551,1.551,1.5505,1.5505, 3888
01/08/2020,16:37,1.551,1.551,1.551,1.551, 13687
01/08/2020,16:39,1.551,1.551,1.5505,1.551, 4221
01/08/2020,16:41,1.552,1.553,1.552,1.553, 6719
01/08/2020,16:44,1.5535,1.5535,1.5535,1.5535, 265
01/08/2020,16:45,1.5535,1.5535,1.5535,1.5535, 454
01/08/2020,16:46,1.5535,1.5535,1.5535,1.5535, 264
01/08/2020,16:47,1.5535,1.5535,1.5535,1.5535, 264
01/08/2020,16:49,1.553,1.553,1.553,1.553, 3353
01/08/2020,16:50,1.553,1.553,1.552,1.5525, 10359
01/08/2020,16:51,1.5525,1.5525,1.5525,1.5525, 1336
01/08/2020,16:52,1.5525,1.553,1.5525,1.5525, 14893
01/08/2020,16:53,1.553,1.553,1.5525,1.5525, 5443
01/08/2020,16:54,1.552,1.552,1.551,1.551, 10620
01/08/2020,16:55,1.5515,1.5525,1.5515,1.5525, 13696
01/08/2020,16:56,1.552,1.554,1.552,1.554, 9604
01/08/2020,16:57,1.5535,1.554,1.553,1.553, 7736
01/08/2020,16:58,1.555,1.555,1.5535,1.5545, 12836
01/08/2020,17:01,1.5535,1.5535,1.5535,1.5535, 2000
01/08/2020,17:03,1.5545,1.556,1.5545,1.556, 8484
01/08/2020,17:04,1.555,1.555,1.555,1.555, 599
01/08/2020,17:06,1.555,1.555,1.555,1.555, 515
01/08/2020,17:08,1.5545,1.5545,1.5545,1.5545, 3197
01/08/2020,17:09,1.554,1.554,1.554,1.554, 4359
01/08/2020,17:10,1.554,1.5545,1.5535,1.5545, 19390
01/08/2020,17:11,1.5545,1.5545,1.554,1.554, 2678
01/08/2020,17:13,1.5545,1.555,1.5545,1.5545, 8755
01/08/2020,17:14,1.5545,1.5545,1.5545,1.5545, 155
01/08/2020,17:15,1.5545,1.5545,1.5545,1.5545, 179
01/08/2020,17:16,1.5545,1.5545,1.5545,1.5545, 229
01/08/2020,17:17,1.554,1.554,1.554,1.554, 3
01/08/2020,17:18,1.5545,1.5555,1.5545,1.5555, 15213
01/08/2020,17:21,1.556,1.556,1.5555,1.5555, 806
01/08/2020,17:22,1.555,1.5555,1.555,1.5555, 8915
01/08/2020,17:23,1.555,1.555,1.555,1.555, 569
01/08/2020,17:24,1.5545,1.5545,1.554,1.554, 11802
01/08/2020,17:25,1.5535,1.554,1.5525,1.5525, 19553
01/08/2020,17:26,1.5525,1.553,1.5525,1.5525, 28660
01/08/2020,17:27,1.553,1.5535,1.553,1.5535, 5987
01/08/2020,17:28,1.554,1.554,1.5525,1.5525, 3006
01/08/2020,17:29,1.5525,1.5535,1.5525,1.5525, 10446
01/08/2020,17:30,1.553,1.554,1.5501,1.554, 147273
01/08/2020,17:30,1.5535,1.5535,1.5535,1.5535, 2639
01/08/2020,17:36,1.5555,1.5555,1.5555,1.5555, 718029
01/09/2020,09:01,1.555,1.555,1.555,1.555, 4565
01/09/2020,09:03,1.5609,1.5609,1.5609,1.5609, 3400
01/09/2020,09:05,1.567,1.567,1.567,1.567, 361
01/09/2020,09:06,1.569,1.5715,1.569,1.5715, 4121
01/09/2020,09:07,1.571,1.5715,1.571,1.5715, 2402
01/09/2020,09:09,1.5725,1.573,1.5725,1.573, 110
01/09/2020,09:11,1.576,1.576,1.576,1.576, 3957
01/09/2020,09:16,1.575,1.575,1.5735,1.5735, 6847
01/09/2020,09:17,1.5765,1.5765,1.575,1.5765, 3110
01/09/2020,09:18,1.5755,1.5755,1.5755,1.5755, 306
01/09/2020,09:21,1.5765,1.5765,1.5755,1.5755, 3545
01/09/2020,09:22,1.576,1.576,1.575,1.5755, 1899
01/09/2020,09:24,1.5765,1.5765,1.5755,1.5755, 318
01/09/2020,09:28,1.5758,1.5758,1.5758,1.5758, 969
01/09/2020,09:31,1.575,1.575,1.5735,1.5735, 547
01/09/2020,09:32,1.573,1.573,1.571,1.571, 368
01/09/2020,09:36,1.572,1.572,1.572,1.572, 1700
01/09/2020,09:41,1.573,1.573,1.5725,1.573, 2730
01/09/2020,09:42,1.5715,1.572,1.571,1.5715, 4631
01/09/2020,09:43,1.5715,1.5715,1.5715,1.5715, 340
01/09/2020,09:48,1.572,1.572,1.5675,1.571, 19580
01/09/2020,09:52,1.5725,1.5725,1.5725,1.5725, 1697
01/09/2020,09:54,1.572,1.572,1.572,1.572, 2875
01/09/2020,09:56,1.572,1.572,1.5705,1.5705, 1523
01/09/2020,09:58,1.57,1.57,1.57,1.57, 950
01/09/2020,09:58,1.5695,1.5695,1.5695,1.5695, 80
01/09/2020,10:14,1.5705,1.5705,1.5705,1.5705, 2663
01/09/2020,10:15,1.5695,1.5715,1.5695,1.5715, 2994
01/09/2020,10:22,1.57,1.57,1.57,1.57, 753
01/09/2020,10:24,1.57,1.57,1.57,1.57, 1235
01/09/2020,10:26,1.571,1.571,1.571,1.571, 2855
01/09/2020,10:26,1.5705,1.5705,1.57,1.57, 5605
01/09/2020,10:29,1.5705,1.5705,1.5705,1.5705, 2775
01/09/2020,10:30,1.569,1.569,1.569,1.569, 533
01/09/2020,10:33,1.5695,1.57,1.568,1.568, 11699
01/09/2020,10:35,1.5685,1.569,1.5685,1.569, 3986
01/09/2020,10:35,1.5675,1.57,1.5675,1.57, 9646
01/09/2020,10:40,1.5705,1.5705,1.5705,1.5705, 775
01/09/2020,10:42,1.5705,1.5705,1.5705,1.5705, 305
01/09/2020,10:43,1.5715,1.5715,1.5715,1.5715, 1048
01/09/2020,10:44,1.571,1.571,1.5705,1.5705, 151
01/09/2020,10:45,1.5705,1.5705,1.57,1.57, 1069
01/09/2020,10:46,1.5715,1.5715,1.5715,1.5715, 3397
01/09/2020,10:47,1.5705,1.5705,1.5705,1.5705, 790
01/09/2020,10:51,1.571,1.571,1.571,1.571, 2158
01/09/2020,10:52,1.572,1.5725,1.572,1.5725, 2846
01/09/2020,10:55,1.574,1.5745,1.574,1.5745, 5932
01/09/2020,10:56,1.575,1.575,1.575,1.575, 272
01/09/2020,10:59,1.5762,1.577,1.5762,1.577, 1805
01/09/2020,11:01,1.5765,1.5765,1.5765,1.5765, 751
01/09/2020,11:03,1.578,1.5785,1.578,1.578, 6742
01/09/2020,11:04,1.578,1.578,1.578,1.578, 1295
01/09/2020,11:06,1.5785,1.581,1.5785,1.581, 4455
01/09/2020,11:06,1.5815,1.582,1.5805,1.582, 6373
01/09/2020,11:11,1.5825,1.583,1.5825,1.5825, 8502
01/09/2020,11:13,1.5835,1.5835,1.5825,1.583, 2837
01/09/2020,11:13,1.5835,1.5835,1.5835,1.5835, 3448
01/09/2020,11:14,1.584,1.584,1.584,1.584, 555
01/09/2020,11:16,1.5835,1.5835,1.5835,1.5835, 1544
01/09/2020,11:17,1.582,1.582,1.5795,1.5795, 8708
01/09/2020,11:21,1.5785,1.5785,1.5785,1.5785, 612
01/09/2020,11:36,1.5775,1.5775,1.5775,1.5775, 607
01/09/2020,11:38,1.579,1.581,1.5785,1.581, 11603
01/09/2020,11:39,1.5818,1.5818,1.5818,1.5818, 1897
01/09/2020,11:41,1.5825,1.5825,1.581,1.581, 1426
01/09/2020,11:47,1.5835,1.5835,1.5835,1.5835, 542
01/09/2020,11:49,1.582,1.583,1.5815,1.583, 4693
01/09/2020,11:51,1.583,1.583,1.583,1.583, 145
01/09/2020,11:54,1.583,1.584,1.583,1.5835, 3145
01/09/2020,11:57,1.583,1.583,1.5825,1.583, 2178
01/09/2020,12:01,1.581,1.581,1.5785,1.5785, 17026
01/09/2020,12:05,1.578,1.578,1.578,1.578, 2230
01/09/2020,12:11,1.5785,1.5785,1.5785,1.5785, 74
01/09/2020,12:12,1.578,1.5785,1.578,1.578, 207
01/09/2020,12:14,1.5788,1.5788,1.5788,1.5788, 1612
01/09/2020,12:24,1.5795,1.5805,1.5795,1.58, 22749
01/09/2020,12:25,1.5805,1.5805,1.5805,1.5805, 1680
01/09/2020,12:26,1.5815,1.5815,1.5815,1.5815, 2000
01/09/2020,12:27,1.582,1.582,1.582,1.582, 2000
01/09/2020,12:36,1.584,1.5845,1.584,1.5845, 5401
01/09/2020,12:37,1.5845,1.5845,1.584,1.584, 4131
01/09/2020,12:42,1.584,1.587,1.584,1.587, 11104
01/09/2020,12:44,1.5873,1.5873,1.5873,1.5873, 3000
01/09/2020,12:45,1.5885,1.5885,1.5885,1.5885, 1250
01/09/2020,12:46,1.588,1.588,1.588,1.588, 20
01/09/2020,12:47,1.5885,1.5885,1.5885,1.5885, 1453
01/09/2020,12:48,1.589,1.589,1.588,1.588, 4667
01/09/2020,12:49,1.5865,1.5865,1.5865,1.5865, 1400
01/09/2020,12:51,1.587,1.587,1.587,1.587, 2430
01/09/2020,12:52,1.5865,1.587,1.5865,1.587, 4011
01/09/2020,12:54,1.588,1.588,1.588,1.588, 1460
01/09/2020,12:55,1.5885,1.5885,1.5885,1.5885, 2553
01/09/2020,12:56,1.5875,1.5875,1.5875,1.5875, 1872
01/09/2020,13:03,1.59,1.59,1.59,1.59, 818
01/09/2020,13:03,1.589,1.589,1.589,1.589, 2545
01/09/2020,13:05,1.5885,1.5885,1.588,1.5885, 3173
01/09/2020,13:06,1.5885,1.589,1.5885,1.589, 2524
01/09/2020,13:07,1.5885,1.5885,1.5885,1.5885, 245
01/09/2020,13:11,1.588,1.588,1.588,1.588, 3500
01/09/2020,13:12,1.5875,1.5875,1.5875,1.5875, 117
01/09/2020,13:13,1.5865,1.5865,1.5865,1.5865, 4327
01/09/2020,13:16,1.5875,1.5875,1.5875,1.5875, 909
01/09/2020,13:17,1.588,1.588,1.588,1.588, 3239
01/09/2020,13:21,1.588,1.5885,1.588,1.5885, 8925
01/09/2020,13:23,1.589,1.5895,1.589,1.5895, 5511
01/09/2020,13:27,1.588,1.588,1.586,1.586, 4480
01/09/2020,13:31,1.587,1.587,1.587,1.587, 62
01/09/2020,13:32,1.5865,1.5865,1.585,1.585, 952
01/09/2020,13:41,1.585,1.5852,1.5835,1.5835, 6782
01/09/2020,13:42,1.584,1.587,1.584,1.587, 5367
01/09/2020,13:43,1.587,1.587,1.587,1.587, 336
01/09/2020,13:44,1.586,1.586,1.586,1.586, 3030
01/09/2020,13:45,1.5858,1.5858,1.5858,1.5858, 2120
01/09/2020,13:56,1.5855,1.5855,1.5855,1.5855, 1020
01/09/2020,13:59,1.5845,1.5845,1.5845,1.5845, 3984
01/09/2020,14:00,1.585,1.585,1.585,1.585, 237
01/09/2020,14:03,1.586,1.5865,1.586,1.586, 11490
01/09/2020,14:05,1.587,1.587,1.587,1.587, 1600
01/09/2020,14:07,1.587,1.587,1.5855,1.5855, 13542
01/09/2020,14:11,1.5855,1.5855,1.5855,1.5855, 1417
01/09/2020,14:13,1.586,1.586,1.5855,1.5855, 1425
01/09/2020,14:13,1.5855,1.5855,1.5855,1.5855, 127
01/09/2020,14:15,1.5855,1.5855,1.5855,1.5855, 209
01/09/2020,14:22,1.585,1.585,1.585,1.585, 110
01/09/2020,14:25,1.585,1.585,1.583,1.583, 2335
01/09/2020,14:28,1.585,1.585,1.585,1.585, 5499
01/09/2020,14:35,1.585,1.585,1.5845,1.5845, 5387
01/09/2020,14:37,1.5845,1.5845,1.5845,1.5845, 3273
01/09/2020,14:38,1.5848,1.5848,1.5848,1.5848, 1000
01/09/2020,14:50,1.5845,1.5845,1.5845,1.5845, 1300
01/09/2020,14:51,1.5855,1.5855,1.5855,1.5855, 786
01/09/2020,14:53,1.5845,1.5845,1.5845,1.5845, 525
01/09/2020,15:01,1.585,1.585,1.585,1.585, 126
01/09/2020,15:02,1.585,1.585,1.585,1.585, 400
01/09/2020,15:03,1.585,1.585,1.585,1.585, 391
01/09/2020,15:05,1.585,1.585,1.5845,1.5845, 2671
01/09/2020,15:08,1.583,1.583,1.583,1.583, 162
01/09/2020,15:11,1.5825,1.5825,1.5815,1.5815, 5901
01/09/2020,15:15,1.5805,1.5805,1.5805,1.5805, 376
01/09/2020,15:19,1.5785,1.5805,1.5785,1.5805, 5515
01/09/2020,15:20,1.5795,1.5795,1.5795,1.5795, 275
01/09/2020,15:23,1.58,1.58,1.58,1.58, 497
01/09/2020,15:23,1.5795,1.5795,1.5795,1.5795, 560
01/09/2020,15:25,1.58,1.58,1.58,1.58, 345
01/09/2020,15:29,1.581,1.581,1.581,1.581, 2000
01/09/2020,15:30,1.58,1.58,1.5795,1.58, 5713
01/09/2020,15:37,1.5785,1.5785,1.578,1.578, 7440
01/09/2020,15:38,1.5775,1.5775,1.5775,1.5775, 328
01/09/2020,15:39,1.578,1.578,1.578,1.578, 4522
01/09/2020,15:39,1.579,1.579,1.579,1.579, 1149
01/09/2020,15:42,1.578,1.578,1.578,1.578, 1506
01/09/2020,15:45,1.5775,1.5775,1.5775,1.5775, 2136
01/09/2020,15:48,1.5775,1.5775,1.5775,1.5775, 1365
01/09/2020,15:49,1.578,1.578,1.578,1.578, 1128
01/09/2020,15:50,1.579,1.579,1.579,1.579, 3260
01/09/2020,15:52,1.5785,1.5785,1.5775,1.5785, 5432
01/09/2020,16:01,1.5775,1.5775,1.5775,1.5775, 2557
01/09/2020,16:02,1.5775,1.5775,1.5775,1.5775, 471
01/09/2020,16:03,1.5775,1.5775,1.5775,1.5775, 1218
01/09/2020,16:04,1.577,1.577,1.577,1.577, 2328
01/09/2020,16:09,1.577,1.577,1.577,1.577, 493
01/09/2020,16:14,1.577,1.577,1.5768,1.5768, 372
01/09/2020,16:16,1.5765,1.5765,1.575,1.575, 9007
01/09/2020,16:17,1.5745,1.575,1.5745,1.575, 5617
01/09/2020,16:18,1.5755,1.578,1.5755,1.578, 15702
01/09/2020,16:22,1.577,1.577,1.577,1.577, 4692
01/09/2020,16:22,1.5775,1.5775,1.5775,1.5775, 854
01/09/2020,16:26,1.578,1.5785,1.578,1.578, 8995
01/09/2020,16:29,1.5785,1.579,1.578,1.5785, 10975
01/09/2020,16:30,1.5785,1.5785,1.578,1.578, 1355
01/09/2020,16:34,1.5785,1.579,1.5785,1.579, 2915
01/09/2020,16:35,1.579,1.5795,1.579,1.5795, 2733
01/09/2020,16:35,1.579,1.579,1.5785,1.5785, 3788
01/09/2020,16:38,1.579,1.579,1.579,1.579, 1052
01/09/2020,16:39,1.579,1.579,1.579,1.579, 2998
01/09/2020,16:40,1.5792,1.5795,1.579,1.579, 6825
01/09/2020,16:40,1.579,1.5795,1.578,1.5795, 14730
01/09/2020,16:42,1.581,1.581,1.581,1.581, 3149
01/09/2020,16:43,1.58,1.5805,1.58,1.58, 4122
01/09/2020,16:46,1.58,1.58,1.5785,1.5785, 5963
01/09/2020,16:47,1.578,1.5785,1.578,1.5785, 1497
01/09/2020,16:48,1.578,1.578,1.578,1.578, 1229
01/09/2020,16:50,1.5775,1.578,1.5775,1.578, 6605
01/09/2020,16:51,1.5775,1.5785,1.5775,1.5785, 8337
01/09/2020,16:54,1.5785,1.5785,1.5785,1.5785, 424
01/09/2020,16:55,1.5785,1.5785,1.578,1.578, 1706
01/09/2020,16:56,1.578,1.578,1.578,1.578, 244
01/09/2020,16:56,1.5775,1.5775,1.5775,1.5775, 806
01/09/2020,16:58,1.5775,1.5775,1.5775,1.5775, 147
01/09/2020,17:00,1.5765,1.5765,1.5765,1.5765, 4868
01/09/2020,17:01,1.5765,1.5765,1.5765,1.5765, 486
01/09/2020,17:02,1.5765,1.5765,1.5765,1.5765, 2500
01/09/2020,17:03,1.5765,1.5765,1.576,1.576, 1700
01/09/2020,17:04,1.575,1.575,1.5745,1.5745, 7418
01/09/2020,17:05,1.574,1.574,1.574,1.574, 2370
01/09/2020,17:07,1.5735,1.5745,1.573,1.5745, 24030
01/09/2020,17:08,1.5745,1.5745,1.574,1.574, 5667
01/09/2020,17:11,1.574,1.5745,1.573,1.573, 6798
01/09/2020,17:12,1.574,1.5745,1.574,1.5745, 6319
01/09/2020,17:13,1.575,1.575,1.575,1.575, 2535
01/09/2020,17:16,1.575,1.576,1.574,1.576, 15025
01/09/2020,17:17,1.576,1.576,1.576,1.576, 1755
01/09/2020,17:19,1.5765,1.577,1.576,1.5765, 14314
01/09/2020,17:20,1.5765,1.5765,1.5765,1.5765, 961
01/09/2020,17:22,1.576,1.576,1.5755,1.5755, 7032
01/09/2020,17:23,1.5755,1.5755,1.575,1.575, 259
01/09/2020,17:24,1.5755,1.5755,1.5745,1.5745, 9409
01/09/2020,17:25,1.5735,1.575,1.5735,1.575, 9073
01/09/2020,17:26,1.5755,1.576,1.5755,1.5755, 7279
01/09/2020,17:27,1.5745,1.5745,1.5745,1.5745, 2156
01/09/2020,17:28,1.5745,1.5745,1.5745,1.5745, 3136
01/09/2020,17:30,1.5745,1.575,1.5745,1.575, 3620
01/09/2020,17:30,1.575,1.575,1.575,1.575, 96
01/09/2020,17:36,1.569,1.569,1.569,1.569, 699261
01/10/2020,09:01,1.5825,1.589,1.5812,1.5812, 741
01/10/2020,09:04,1.579,1.5835,1.579,1.5835, 11251
01/10/2020,09:05,1.584,1.584,1.584,1.584, 317
01/10/2020,09:06,1.5823,1.5845,1.5823,1.5845, 4336
01/10/2020,09:07,1.5825,1.5825,1.582,1.5825, 3860
01/10/2020,09:07,1.5845,1.5845,1.5845,1.5845, 308
01/10/2020,09:09,1.585,1.5855,1.58,1.58, 23869
01/10/2020,09:10,1.5775,1.5775,1.5775,1.5775, 3872
01/10/2020,09:11,1.5735,1.574,1.567,1.5675, 164547
01/10/2020,09:12,1.569,1.5708,1.5675,1.57, 85306
01/10/2020,09:13,1.57,1.574,1.5655,1.5655, 166796
01/10/2020,09:14,1.5685,1.5685,1.5655,1.5655, 2030
01/10/2020,09:15,1.5695,1.577,1.5695,1.576, 5080
01/10/2020,09:15,1.5805,1.5805,1.5765,1.5775, 24652
01/10/2020,09:17,1.5765,1.5785,1.5735,1.5785, 15914
01/10/2020,09:18,1.5785,1.587,1.5785,1.5855, 22709
01/10/2020,09:19,1.5875,1.5905,1.5865,1.5865, 37420
01/10/2020,09:20,1.584,1.589,1.584,1.589, 3110
01/10/2020,09:22,1.5875,1.5875,1.5875,1.5875, 2040
01/10/2020,09:23,1.589,1.589,1.5865,1.5865, 3367
01/10/2020,09:24,1.586,1.587,1.586,1.587, 3703
01/10/2020,09:25,1.588,1.5885,1.588,1.588, 2867
01/10/2020,09:26,1.5885,1.5885,1.587,1.587, 207
01/10/2020,09:29,1.586,1.586,1.586,1.586, 4047
01/10/2020,09:31,1.5845,1.586,1.5845,1.586, 1566
01/10/2020,09:31,1.586,1.586,1.584,1.584, 1183
01/10/2020,09:34,1.5835,1.5835,1.5835,1.5835, 703
01/10/2020,09:36,1.583,1.583,1.583,1.583, 1786
01/10/2020,09:38,1.5855,1.5855,1.5845,1.5845, 1232
01/10/2020,09:39,1.584,1.584,1.5825,1.5825, 1853
01/10/2020,09:41,1.5846,1.5846,1.5785,1.5785, 10509
01/10/2020,09:43,1.577,1.5775,1.577,1.5775, 1847
01/10/2020,09:44,1.577,1.5795,1.577,1.5795, 11045
01/10/2020,09:48,1.5795,1.5795,1.5775,1.5775, 6928
01/10/2020,09:49,1.5765,1.5795,1.576,1.5795, 7767
01/10/2020,09:52,1.579,1.579,1.579,1.579, 933
01/10/2020,09:54,1.578,1.578,1.5775,1.5775, 657
01/10/2020,09:54,1.5765,1.5765,1.5765,1.5765, 16
01/10/2020,09:56,1.575,1.576,1.575,1.5755, 4013
01/10/2020,10:01,1.5725,1.5735,1.5725,1.5735, 4007
01/10/2020,10:05,1.573,1.573,1.5725,1.5725, 1953
01/10/2020,10:08,1.572,1.572,1.572,1.572, 2820
01/10/2020,10:09,1.572,1.572,1.572,1.572, 116
01/10/2020,10:11,1.572,1.572,1.572,1.572, 241
01/10/2020,10:12,1.5705,1.5705,1.5705,1.5705, 234
01/10/2020,10:13,1.57,1.571,1.5695,1.571, 15162
01/10/2020,10:14,1.5725,1.574,1.5725,1.573, 8036
01/10/2020,10:15,1.5725,1.5725,1.57,1.57, 6155
01/10/2020,10:15,1.57,1.57,1.57,1.57, 288
01/10/2020,10:18,1.568,1.5685,1.568,1.568, 2583
01/10/2020,10:18,1.5685,1.5685,1.5685,1.5685, 281
01/10/2020,10:21,1.5675,1.5675,1.567,1.567, 3328
01/10/2020,10:23,1.568,1.568,1.568,1.568, 2013
01/10/2020,10:27,1.5655,1.5675,1.5645,1.565, 71610
01/10/2020,10:28,1.565,1.565,1.5645,1.5645, 6693
01/10/2020,10:28,1.564,1.564,1.564,1.564, 5167
01/10/2020,10:29,1.564,1.5645,1.5635,1.5635, 5372
01/10/2020,10:31,1.5635,1.5635,1.563,1.563, 1933
01/10/2020,10:33,1.5625,1.5625,1.5625,1.5625, 313
01/10/2020,10:39,1.5625,1.5625,1.5615,1.5615, 4015
01/10/2020,10:41,1.5615,1.5615,1.561,1.5615, 2980
01/10/2020,10:42,1.5615,1.5615,1.5615,1.5615, 1729
01/10/2020,10:46,1.5625,1.563,1.5625,1.563, 4680
01/10/2020,10:48,1.5635,1.5655,1.5635,1.565, 11191
01/10/2020,10:49,1.565,1.5655,1.5645,1.565, 16923
01/10/2020,10:50,1.565,1.565,1.564,1.564, 12941
01/10/2020,10:52,1.566,1.5665,1.565,1.565, 44450
01/10/2020,10:53,1.5645,1.5645,1.564,1.5642, 7644
01/10/2020,10:53,1.5635,1.564,1.563,1.5635, 7017
01/10/2020,10:56,1.565,1.565,1.564,1.565, 27230
01/10/2020,10:57,1.565,1.565,1.5645,1.5645, 7476
01/10/2020,11:00,1.5645,1.565,1.5645,1.565, 9294
01/10/2020,11:03,1.565,1.565,1.565,1.565, 491
01/10/2020,11:04,1.5655,1.5735,1.5655,1.5735, 8502
01/10/2020,11:04,1.5735,1.5735,1.573,1.573, 5897
01/10/2020,11:05,1.573,1.5735,1.573,1.5735, 8253
01/10/2020,11:07,1.571,1.571,1.5705,1.5705, 1215
01/10/2020,11:10,1.57,1.57,1.57,1.57, 470
01/10/2020,11:10,1.5695,1.5695,1.5695,1.5695, 5141
01/10/2020,11:13,1.5698,1.5698,1.5698,1.5698, 552
01/10/2020,11:15,1.5705,1.5705,1.5705,1.5705, 3842
01/10/2020,11:18,1.5695,1.5695,1.5695,1.5695, 222
01/10/2020,11:20,1.569,1.569,1.569,1.569, 1756
01/10/2020,11:21,1.5685,1.5685,1.5685,1.5685, 244
01/10/2020,11:25,1.5685,1.5685,1.5685,1.5685, 302
01/10/2020,11:26,1.568,1.568,1.5675,1.5675, 2864
01/10/2020,11:27,1.567,1.567,1.567,1.567, 119
01/10/2020,11:31,1.567,1.567,1.567,1.567, 1105
01/10/2020,11:33,1.5665,1.5665,1.5665,1.5665, 238
01/10/2020,11:42,1.5672,1.5672,1.5672,1.5672, 118
01/10/2020,11:47,1.5665,1.5685,1.5665,1.5685, 2580
01/10/2020,11:49,1.5687,1.5695,1.5687,1.569, 3991
01/10/2020,11:50,1.5695,1.5695,1.5695,1.5695, 1116
01/10/2020,11:51,1.57,1.57,1.57,1.57, 647
01/10/2020,11:53,1.5695,1.5695,1.569,1.569, 7661
01/10/2020,11:54,1.5685,1.5685,1.5685,1.5685, 529
01/10/2020,12:01,1.5695,1.5695,1.5695,1.5695, 62
01/10/2020,12:04,1.569,1.569,1.569,1.569, 1303
01/10/2020,12:11,1.569,1.569,1.568,1.568, 6497
01/10/2020,12:17,1.569,1.569,1.569,1.569, 2000
01/10/2020,12:18,1.5688,1.5688,1.5688,1.5688, 950
01/10/2020,12:21,1.5685,1.5685,1.5675,1.5675, 5246
01/10/2020,12:22,1.568,1.5685,1.568,1.5685, 2633
01/10/2020,12:27,1.57,1.57,1.57,1.57, 2617
01/10/2020,12:29,1.5695,1.5695,1.5695,1.5695, 827
01/10/2020,12:30,1.57,1.5705,1.57,1.5705, 2026
01/10/2020,12:33,1.5715,1.5715,1.5715,1.5715, 1421
01/10/2020,12:35,1.572,1.572,1.572,1.572, 768
01/10/2020,12:42,1.5725,1.5725,1.5725,1.5725, 1912
01/10/2020,12:49,1.5733,1.5735,1.5733,1.5735, 2229
01/10/2020,12:52,1.574,1.5745,1.574,1.5745, 704
01/10/2020,12:55,1.575,1.575,1.575,1.575, 4498
01/10/2020,12:56,1.575,1.575,1.575,1.575, 641
01/10/2020,13:00,1.575,1.5755,1.575,1.5755, 7161
01/10/2020,13:03,1.5775,1.5775,1.5745,1.5745, 4024
01/10/2020,13:04,1.5755,1.5755,1.5755,1.5755, 1535
01/10/2020,13:07,1.575,1.575,1.575,1.575, 73
01/10/2020,13:15,1.5745,1.5745,1.5735,1.5735, 6776
01/10/2020,13:16,1.573,1.5735,1.573,1.5735, 2598
01/10/2020,13:18,1.5745,1.5745,1.5745,1.5745, 1500
01/10/2020,13:23,1.5752,1.5752,1.5752,1.5752, 571
01/10/2020,13:28,1.5745,1.5745,1.5745,1.5745, 2409
01/10/2020,13:30,1.575,1.575,1.575,1.575, 73
01/10/2020,13:34,1.576,1.577,1.576,1.5765, 3959
01/10/2020,13:36,1.578,1.578,1.578,1.578, 2000
01/10/2020,13:42,1.5795,1.5795,1.5795,1.5795, 511
01/10/2020,13:44,1.579,1.579,1.579,1.579, 1
01/10/2020,13:45,1.579,1.579,1.579,1.579, 349
01/10/2020,13:46,1.579,1.58,1.579,1.58, 1671
01/10/2020,13:47,1.58,1.5815,1.58,1.5815, 13834
01/10/2020,13:48,1.583,1.583,1.583,1.583, 378
01/10/2020,13:48,1.583,1.583,1.583,1.583, 1015
01/10/2020,13:51,1.583,1.583,1.583,1.583, 1600
01/10/2020,13:57,1.5825,1.583,1.5825,1.5825, 4096
01/10/2020,14:02,1.582,1.582,1.5815,1.5815, 5321
01/10/2020,14:05,1.581,1.581,1.581,1.581, 1022
01/10/2020,14:16,1.58,1.58,1.58,1.58, 17
01/10/2020,14:19,1.58,1.5805,1.58,1.5805, 2398
01/10/2020,14:21,1.58,1.58,1.58,1.58, 2000
01/10/2020,14:24,1.5795,1.5795,1.5795,1.5795, 1588
01/10/2020,14:25,1.5805,1.5805,1.58,1.58, 2548
01/10/2020,14:28,1.581,1.581,1.581,1.581, 1179
01/10/2020,14:28,1.58,1.58,1.58,1.58, 5292
01/10/2020,14:31,1.581,1.5825,1.5805,1.582, 10363
01/10/2020,14:32,1.5815,1.5815,1.5815,1.5815, 2776
01/10/2020,14:34,1.583,1.583,1.583,1.583, 2713
01/10/2020,14:38,1.582,1.5825,1.582,1.5825, 3338
01/10/2020,14:38,1.582,1.582,1.582,1.582, 800
01/10/2020,14:42,1.581,1.581,1.581,1.581, 2000
01/10/2020,14:43,1.5815,1.5815,1.5815,1.5815, 2111
01/10/2020,14:43,1.5805,1.5805,1.5805,1.5805, 2000
01/10/2020,14:45,1.58,1.58,1.58,1.58, 3530
01/10/2020,14:45,1.5803,1.5803,1.58,1.58, 2044
01/10/2020,14:47,1.579,1.58,1.579,1.58, 2513
01/10/2020,14:48,1.5805,1.5805,1.5805,1.5805, 3794
01/10/2020,14:51,1.581,1.581,1.581,1.581, 524
01/10/2020,14:51,1.581,1.581,1.581,1.581, 697
01/10/2020,14:53,1.5825,1.5825,1.5825,1.5825, 895
01/10/2020,14:55,1.583,1.583,1.583,1.583, 746
01/10/2020,15:01,1.584,1.584,1.584,1.584, 1287
01/10/2020,15:02,1.5845,1.585,1.5845,1.585, 882
01/10/2020,15:02,1.586,1.586,1.586,1.586, 371
01/10/2020,15:04,1.586,1.587,1.5855,1.587, 4580
01/10/2020,15:05,1.588,1.588,1.588,1.588, 2566
01/10/2020,15:06,1.588,1.588,1.588,1.588, 577
01/10/2020,15:10,1.587,1.5875,1.587,1.587, 8008
01/10/2020,15:12,1.587,1.587,1.587,1.587, 738
01/10/2020,15:14,1.588,1.588,1.588,1.588, 2739
01/10/2020,15:16,1.5875,1.5875,1.5875,1.5875, 2289
01/10/2020,15:17,1.5885,1.5885,1.5885,1.5885, 2749
01/10/2020,15:23,1.5885,1.5885,1.5875,1.5875, 8220
01/10/2020,15:24,1.587,1.587,1.5865,1.5865, 5430
01/10/2020,15:25,1.585,1.5855,1.584,1.584, 50090
01/10/2020,15:26,1.5835,1.584,1.5835,1.584, 2889
01/10/2020,15:29,1.5845,1.585,1.5845,1.585, 11322
01/10/2020,15:30,1.585,1.585,1.5845,1.5845, 14433
01/10/2020,15:31,1.585,1.585,1.585,1.585, 6626
01/10/2020,15:31,1.584,1.584,1.584,1.584, 4216
01/10/2020,15:36,1.5845,1.5845,1.5845,1.5845, 1333
01/10/2020,15:38,1.5845,1.585,1.5845,1.585, 32859
01/10/2020,15:39,1.585,1.585,1.585,1.585, 2626
01/10/2020,15:40,1.5845,1.5845,1.5845,1.5845, 2785
01/10/2020,15:43,1.585,1.585,1.585,1.585, 7000
01/10/2020,15:46,1.585,1.585,1.5835,1.5835, 6006
01/10/2020,15:47,1.583,1.5835,1.58,1.5825, 51797
01/10/2020,15:48,1.5815,1.5815,1.58,1.58, 24027
01/10/2020,15:49,1.58,1.58,1.58,1.58, 13108
01/10/2020,15:50,1.581,1.5815,1.58,1.5815, 17909
01/10/2020,15:51,1.582,1.5835,1.5815,1.5835, 3189
01/10/2020,15:52,1.584,1.5855,1.584,1.5855, 1984
01/10/2020,15:55,1.5855,1.5865,1.5855,1.5865, 8205
01/10/2020,15:58,1.587,1.587,1.5865,1.587, 5781
01/10/2020,15:59,1.5865,1.5865,1.586,1.586, 8516
01/10/2020,16:01,1.5865,1.5865,1.5845,1.5845, 13980
01/10/2020,16:02,1.5845,1.585,1.5845,1.585, 2969
01/10/2020,16:04,1.5855,1.5855,1.5845,1.5845, 7972
01/10/2020,16:05,1.584,1.584,1.5815,1.5815, 9356
01/10/2020,16:06,1.5815,1.5815,1.5815,1.5815, 547
01/10/2020,16:07,1.582,1.582,1.582,1.582, 4684
01/10/2020,16:10,1.5825,1.5825,1.5825,1.5825, 6842
01/10/2020,16:11,1.5825,1.5825,1.5825,1.5825, 551
01/10/2020,16:12,1.582,1.5835,1.582,1.583, 5454
01/10/2020,16:15,1.583,1.583,1.5825,1.5825, 3890
01/10/2020,16:16,1.583,1.583,1.583,1.583, 1827
01/10/2020,16:17,1.583,1.583,1.583,1.583, 549
01/10/2020,16:18,1.583,1.583,1.58,1.58, 16929
01/10/2020,16:19,1.5795,1.58,1.579,1.579, 11471
01/10/2020,16:21,1.579,1.579,1.579,1.579, 217
01/10/2020,16:22,1.579,1.579,1.579,1.579, 212
01/10/2020,16:23,1.579,1.579,1.579,1.579, 212
01/10/2020,16:24,1.5795,1.5795,1.5785,1.5795, 16021
01/10/2020,16:25,1.58,1.583,1.58,1.583, 64972
01/10/2020,16:26,1.582,1.582,1.582,1.582, 2046
01/10/2020,16:27,1.5815,1.5815,1.581,1.581, 4996
01/10/2020,16:31,1.5815,1.582,1.5815,1.582, 3255
01/10/2020,16:31,1.582,1.583,1.582,1.583, 7345
01/10/2020,16:34,1.5835,1.585,1.5835,1.585, 6066
01/10/2020,16:34,1.5855,1.5855,1.5855,1.5855, 837
01/10/2020,16:37,1.585,1.586,1.585,1.5855, 7580
01/10/2020,16:38,1.5842,1.585,1.5842,1.5845, 5734
01/10/2020,16:42,1.585,1.5855,1.585,1.585, 13415
01/10/2020,16:44,1.585,1.585,1.585,1.585, 4043
01/10/2020,16:46,1.585,1.585,1.585,1.585, 655
01/10/2020,16:46,1.585,1.585,1.585,1.585, 2823
01/10/2020,16:48,1.5855,1.5855,1.585,1.585, 2074
01/10/2020,16:50,1.5845,1.5845,1.582,1.582, 10959
01/10/2020,16:51,1.582,1.582,1.582,1.582, 2555
01/10/2020,16:52,1.5825,1.5825,1.581,1.581, 14532
01/10/2020,16:57,1.5815,1.582,1.5815,1.582, 4936
01/10/2020,16:57,1.582,1.582,1.582,1.582, 9450
01/10/2020,16:58,1.5815,1.5815,1.581,1.581, 1997
01/10/2020,17:01,1.581,1.581,1.581,1.581, 1116
01/10/2020,17:02,1.5815,1.5815,1.581,1.581, 8591
01/10/2020,17:03,1.581,1.581,1.581,1.581, 265
01/10/2020,17:04,1.5815,1.582,1.5815,1.582, 19985
01/10/2020,17:06,1.582,1.582,1.5815,1.5815, 4731
01/10/2020,17:07,1.582,1.582,1.5815,1.5815, 9108
01/10/2020,17:07,1.5815,1.5815,1.5815,1.5815, 2139
01/10/2020,17:09,1.5815,1.5815,1.5815,1.5815, 1248
01/10/2020,17:09,1.5815,1.5815,1.5815,1.5815, 2000
01/10/2020,17:11,1.5815,1.5825,1.5815,1.5815, 19961
01/10/2020,17:12,1.581,1.5815,1.581,1.581, 7415
01/10/2020,17:13,1.58,1.5805,1.58,1.58, 12806
01/10/2020,17:14,1.5795,1.583,1.579,1.583, 36173
01/10/2020,17:15,1.5835,1.5835,1.5835,1.5835, 1885
01/10/2020,17:16,1.5835,1.5835,1.5835,1.5835, 6228
01/10/2020,17:17,1.5835,1.5835,1.5835,1.5835, 2395
01/10/2020,17:18,1.584,1.584,1.584,1.584, 9256
01/10/2020,17:19,1.584,1.5845,1.584,1.5845, 5518
01/10/2020,17:22,1.5845,1.585,1.5845,1.585, 4724
01/10/2020,17:22,1.585,1.585,1.585,1.585, 426
01/10/2020,17:24,1.584,1.5845,1.584,1.5845, 6144
01/10/2020,17:25,1.585,1.585,1.585,1.585, 1653
01/10/2020,17:26,1.585,1.586,1.585,1.586, 10793
01/10/2020,17:27,1.5855,1.5855,1.5855,1.5855, 3831
01/10/2020,17:27,1.5855,1.586,1.585,1.585, 3586
01/10/2020,17:29,1.585,1.5855,1.585,1.5855, 4911
01/10/2020,17:36,1.585,1.585,1.585,1.585, 586272
01/13/2020,09:01,1.559,1.559,1.559,1.559, 13000
01/13/2020,09:03,1.5532,1.5532,1.5532,1.5532, 329
01/13/2020,09:04,1.551,1.551,1.548,1.548, 7109
01/13/2020,09:05,1.558,1.584,1.5515,1.584, 43127
01/13/2020,09:06,1.57,1.5785,1.57,1.5785, 15343
01/13/2020,09:07,1.5795,1.5895,1.578,1.582, 44127
01/13/2020,09:07,1.578,1.578,1.561,1.564, 6405
01/13/2020,09:09,1.5703,1.5703,1.5703,1.5703, 629
01/13/2020,09:12,1.572,1.572,1.572,1.572, 1412
01/13/2020,09:13,1.5765,1.5765,1.5765,1.5765, 2067
01/13/2020,09:16,1.5735,1.5735,1.5735,1.5735, 78
01/13/2020,09:23,1.5725,1.5725,1.5725,1.5725, 465
01/13/2020,09:24,1.572,1.572,1.572,1.572, 847
01/13/2020,09:25,1.5725,1.5725,1.5725,1.5725, 1044
01/13/2020,09:33,1.569,1.5725,1.569,1.5725, 657
01/13/2020,09:41,1.572,1.574,1.572,1.574, 2689
01/13/2020,09:43,1.5775,1.5795,1.5755,1.5795, 3910
01/13/2020,09:44,1.5785,1.5785,1.576,1.576, 3494
01/13/2020,09:45,1.576,1.576,1.576,1.576, 2274
01/13/2020,09:51,1.5755,1.5755,1.5755,1.5755, 589
01/13/2020,09:54,1.579,1.579,1.579,1.579, 1291
01/13/2020,10:03,1.5755,1.5755,1.5755,1.5755, 657
01/13/2020,10:07,1.5795,1.5795,1.5795,1.5795, 91
01/13/2020,10:14,1.5785,1.5785,1.5765,1.5765, 26387
01/13/2020,10:17,1.575,1.575,1.571,1.571, 1523
01/13/2020,10:18,1.569,1.569,1.569,1.569, 1674
01/13/2020,10:18,1.569,1.569,1.569,1.569, 687
01/13/2020,10:21,1.5685,1.5685,1.5685,1.5685, 60
01/13/2020,10:23,1.5675,1.5675,1.5665,1.5665, 934
01/13/2020,10:23,1.5665,1.5665,1.5665,1.5665, 1032
01/13/2020,10:24,1.566,1.566,1.566,1.566, 1703
01/13/2020,10:26,1.566,1.566,1.566,1.566, 773
01/13/2020,10:27,1.5685,1.5685,1.5685,1.5685, 1305
01/13/2020,10:29,1.5695,1.57,1.5695,1.5695, 2915
01/13/2020,10:29,1.5695,1.5695,1.5695,1.5695, 1421
01/13/2020,10:31,1.5695,1.5745,1.5695,1.5745, 16336
01/13/2020,10:31,1.5745,1.5745,1.574,1.574, 762
01/13/2020,10:34,1.5725,1.5725,1.5725,1.5725, 313
01/13/2020,10:39,1.5745,1.5745,1.574,1.5745, 1658
01/13/2020,10:43,1.5735,1.5735,1.573,1.573, 8780
01/13/2020,10:44,1.573,1.573,1.573,1.573, 8101
01/13/2020,10:47,1.575,1.575,1.573,1.573, 8049
01/13/2020,10:52,1.573,1.573,1.573,1.573, 295
01/13/2020,10:55,1.571,1.571,1.571,1.571, 3169
01/13/2020,10:56,1.569,1.569,1.569,1.569, 6752
01/13/2020,10:58,1.5675,1.5675,1.5675,1.5675, 270
01/13/2020,11:01,1.567,1.567,1.567,1.567, 601
01/13/2020,11:03,1.566,1.566,1.563,1.563, 3859
01/13/2020,11:04,1.5635,1.5635,1.5625,1.5625, 10370
01/13/2020,11:05,1.5625,1.5625,1.561,1.561, 4946
01/13/2020,11:05,1.561,1.562,1.561,1.562, 30044
01/13/2020,11:07,1.5605,1.5605,1.5595,1.5595, 6977
01/13/2020,11:07,1.5595,1.5595,1.5595,1.5595, 413
01/13/2020,11:08,1.5575,1.5575,1.5575,1.5575, 619
01/13/2020,11:15,1.5585,1.5585,1.5585,1.5585, 637
01/13/2020,11:17,1.5575,1.5575,1.5575,1.5575, 181
01/13/2020,11:19,1.5585,1.559,1.5585,1.559, 5129
01/13/2020,11:19,1.5585,1.5585,1.5585,1.5585, 953
01/13/2020,11:21,1.559,1.559,1.5585,1.559, 7785
01/13/2020,11:22,1.5595,1.56,1.5595,1.5595, 6328
01/13/2020,11:22,1.56,1.5605,1.56,1.5605, 6340
01/13/2020,11:24,1.561,1.561,1.5605,1.5605, 4690
01/13/2020,11:28,1.559,1.559,1.559,1.559, 6548
01/13/2020,11:28,1.557,1.557,1.557,1.557, 261
01/13/2020,11:31,1.556,1.556,1.5555,1.556, 6731
01/13/2020,11:32,1.5555,1.5565,1.5555,1.5555, 10499
01/13/2020,11:32,1.5555,1.5555,1.5555,1.5555, 20175
01/13/2020,11:35,1.5585,1.5605,1.5585,1.5605, 5127
01/13/2020,11:36,1.561,1.561,1.559,1.5595, 1862
01/13/2020,11:47,1.556,1.557,1.556,1.557, 413
01/13/2020,11:50,1.5575,1.559,1.5575,1.559, 2800
01/13/2020,11:53,1.557,1.559,1.557,1.559, 27009
01/13/2020,11:54,1.5575,1.5585,1.5575,1.5585, 160
01/13/2020,11:56,1.5585,1.559,1.5585,1.559, 3530
01/13/2020,12:05,1.558,1.558,1.5555,1.5555, 13075
01/13/2020,12:08,1.554,1.554,1.554,1.554, 137
01/13/2020,12:11,1.554,1.554,1.554,1.554, 1951
01/13/2020,12:16,1.5555,1.5555,1.5555,1.5555, 627
01/13/2020,12:17,1.5545,1.5545,1.5535,1.554, 7055
01/13/2020,12:19,1.5525,1.5525,1.5525,1.5525, 1828
01/13/2020,12:21,1.554,1.554,1.554,1.554, 1313
01/13/2020,12:22,1.554,1.554,1.554,1.554, 755
01/13/2020,12:24,1.554,1.554,1.5535,1.5535, 767
01/13/2020,12:25,1.5525,1.5525,1.552,1.552, 1373
01/13/2020,12:30,1.5505,1.5505,1.55,1.55, 2033
01/13/2020,12:32,1.5495,1.5495,1.5485,1.5485, 2222
01/13/2020,12:33,1.5495,1.5495,1.5495,1.5495, 1049
01/13/2020,12:36,1.551,1.552,1.551,1.552, 3235
01/13/2020,12:37,1.553,1.554,1.553,1.554, 6114
01/13/2020,12:39,1.5533,1.5533,1.5533,1.5533, 500
01/13/2020,12:39,1.553,1.553,1.553,1.553, 370
01/13/2020,12:41,1.552,1.552,1.552,1.552, 6
01/13/2020,12:50,1.55,1.55,1.55,1.55, 1050
01/13/2020,12:51,1.55,1.55,1.55,1.55, 1088
01/13/2020,12:53,1.5485,1.5485,1.5485,1.5485, 228
01/13/2020,12:56,1.547,1.5495,1.547,1.5495, 4803
01/13/2020,12:57,1.5505,1.5505,1.5505,1.5505, 294
01/13/2020,12:58,1.5505,1.5505,1.5505,1.5505, 3730
01/13/2020,13:00,1.551,1.551,1.551,1.551, 111
01/13/2020,13:00,1.551,1.551,1.551,1.551, 335
01/13/2020,13:03,1.548,1.553,1.548,1.5485, 7461
01/13/2020,13:04,1.548,1.548,1.548,1.548, 60
01/13/2020,13:11,1.5485,1.5485,1.5485,1.5485, 17
01/13/2020,13:11,1.548,1.548,1.548,1.548, 1952
01/13/2020,13:13,1.548,1.548,1.5475,1.5475, 703
01/13/2020,13:16,1.5455,1.5455,1.5455,1.5455, 110
01/13/2020,13:17,1.5452,1.5452,1.5452,1.5452, 732
01/13/2020,13:21,1.546,1.546,1.546,1.546, 234
01/13/2020,13:22,1.547,1.548,1.547,1.547, 17850
01/13/2020,13:22,1.549,1.549,1.549,1.549, 543
01/13/2020,13:23,1.5495,1.5505,1.5495,1.5505, 2744
01/13/2020,13:25,1.5519,1.5519,1.5519,1.5519, 3000
01/13/2020,13:27,1.5515,1.5515,1.5495,1.5495, 2602
01/13/2020,13:31,1.548,1.548,1.548,1.548, 3961
01/13/2020,13:34,1.5492,1.5492,1.5492,1.5492, 642
01/13/2020,13:36,1.548,1.548,1.548,1.548, 915
01/13/2020,13:38,1.5483,1.5483,1.5483,1.5483, 963
01/13/2020,13:46,1.5475,1.5475,1.547,1.547, 4036
01/13/2020,13:47,1.5475,1.5475,1.5475,1.5475, 2764
01/13/2020,13:51,1.5475,1.548,1.5475,1.548, 710
01/13/2020,13:51,1.5495,1.5495,1.5495,1.5495, 2000
01/13/2020,13:53,1.5505,1.5505,1.5505,1.5505, 228
01/13/2020,13:54,1.551,1.5525,1.551,1.5525, 5273
01/13/2020,13:54,1.552,1.552,1.552,1.552, 1045
01/13/2020,14:00,1.554,1.554,1.554,1.554, 3575
01/13/2020,14:03,1.5535,1.5535,1.5525,1.5525, 2828
01/13/2020,14:10,1.5515,1.5515,1.5515,1.5515, 255
01/13/2020,14:10,1.55,1.55,1.55,1.55, 590
01/13/2020,14:15,1.549,1.549,1.549,1.549, 1600
01/13/2020,14:17,1.5505,1.5505,1.5505,1.5505, 1138
01/13/2020,14:34,1.548,1.548,1.548,1.548, 2877
01/13/2020,14:35,1.5485,1.5485,1.5485,1.5485, 395
01/13/2020,14:44,1.548,1.548,1.548,1.548, 1796
01/13/2020,14:56,1.5475,1.5475,1.5475,1.5475, 95
01/13/2020,14:57,1.5485,1.5485,1.5485,1.5485, 1779
01/13/2020,15:00,1.5495,1.5495,1.5495,1.5495, 5000
01/13/2020,15:04,1.548,1.548,1.548,1.548, 2339
01/13/2020,15:06,1.5475,1.5475,1.5475,1.5475, 176
01/13/2020,15:06,1.546,1.546,1.546,1.546, 461
01/13/2020,15:09,1.546,1.546,1.546,1.546, 8976
01/13/2020,15:11,1.544,1.544,1.5435,1.5435, 4184
01/13/2020,15:17,1.5415,1.5415,1.5415,1.5415, 1138
01/13/2020,15:19,1.5419,1.5419,1.5419,1.5419, 2590
01/13/2020,15:24,1.541,1.541,1.541,1.541, 955
01/13/2020,15:26,1.54,1.54,1.5375,1.5375, 5417
01/13/2020,15:30,1.536,1.536,1.536,1.536, 5808
01/13/2020,15:31,1.535,1.537,1.535,1.537, 4884
01/13/2020,15:33,1.5385,1.54,1.538,1.538, 13525
01/13/2020,15:33,1.5395,1.5395,1.5395,1.5395, 353
01/13/2020,15:35,1.539,1.539,1.5385,1.539, 1490
01/13/2020,15:35,1.5385,1.5385,1.5385,1.5385, 596
01/13/2020,15:39,1.539,1.539,1.5385,1.5385, 3020
01/13/2020,15:40,1.5385,1.5385,1.5385,1.5385, 1651
01/13/2020,15:43,1.538,1.538,1.536,1.536, 18793
01/13/2020,15:43,1.536,1.536,1.536,1.536, 2158
01/13/2020,15:46,1.534,1.536,1.531,1.533, 91675
01/13/2020,15:46,1.531,1.531,1.529,1.529, 7475
01/13/2020,15:48,1.5285,1.53,1.5285,1.5285, 13572
01/13/2020,15:53,1.529,1.529,1.5285,1.5285, 2356
01/13/2020,15:55,1.528,1.528,1.5265,1.528, 10699
01/13/2020,15:56,1.5265,1.529,1.526,1.529, 15149
01/13/2020,15:56,1.5295,1.53,1.5295,1.53, 862
01/13/2020,15:57,1.53,1.53,1.53,1.53, 919
01/13/2020,15:58,1.5305,1.5305,1.5305,1.5305, 377
01/13/2020,15:59,1.5295,1.5295,1.529,1.529, 1638
01/13/2020,16:00,1.5285,1.5285,1.5285,1.5285, 4518
01/13/2020,16:02,1.528,1.528,1.528,1.528, 345
01/13/2020,16:02,1.5275,1.5275,1.5275,1.5275, 897
01/13/2020,16:05,1.527,1.528,1.527,1.528, 4454
01/13/2020,16:06,1.527,1.527,1.527,1.527, 13
01/13/2020,16:08,1.5265,1.531,1.5265,1.531, 35627
01/13/2020,16:10,1.537,1.537,1.5325,1.5325, 6973
01/13/2020,16:11,1.534,1.534,1.534,1.534, 323
01/13/2020,16:12,1.5335,1.5335,1.5335,1.5335, 3888
01/13/2020,16:14,1.532,1.532,1.5305,1.5305, 1801
01/13/2020,16:17,1.5305,1.5305,1.5305,1.5305, 1586
01/13/2020,16:18,1.53,1.53,1.5295,1.5295, 672
01/13/2020,16:18,1.529,1.529,1.5285,1.5285, 7321
01/13/2020,16:24,1.5275,1.5275,1.5265,1.5268, 7641
01/13/2020,16:24,1.526,1.526,1.526,1.526, 315
01/13/2020,16:26,1.5255,1.5255,1.5245,1.5245, 3742
01/13/2020,16:26,1.5245,1.5245,1.524,1.524, 1628
01/13/2020,16:28,1.524,1.5245,1.522,1.522, 36214
01/13/2020,16:30,1.5215,1.5255,1.521,1.5255, 22905
01/13/2020,16:30,1.5253,1.5253,1.5253,1.5253, 1977
01/13/2020,16:32,1.5255,1.5255,1.525,1.525, 2684
01/13/2020,16:33,1.524,1.524,1.524,1.524, 707
01/13/2020,16:34,1.5235,1.5245,1.5235,1.5245, 20328
01/13/2020,16:35,1.5255,1.5255,1.525,1.5255, 10406
01/13/2020,16:36,1.5255,1.526,1.5255,1.526, 1821
01/13/2020,16:37,1.5255,1.5255,1.5255,1.5255, 653
01/13/2020,16:44,1.524,1.524,1.524,1.524, 337
01/13/2020,16:46,1.5235,1.525,1.5235,1.525, 37073
01/13/2020,16:48,1.527,1.5275,1.526,1.5275, 5424
01/13/2020,16:48,1.5275,1.5275,1.527,1.5275, 5478
01/13/2020,16:50,1.5265,1.5265,1.5265,1.5265, 685
01/13/2020,16:53,1.5265,1.5265,1.5265,1.5265, 1830
01/13/2020,16:54,1.5265,1.5265,1.5255,1.5255, 17635
01/13/2020,16:55,1.526,1.526,1.5245,1.5245, 21881
01/13/2020,16:56,1.5235,1.5235,1.5225,1.5225, 29437
01/13/2020,16:58,1.521,1.5215,1.52,1.521, 7550
01/13/2020,16:59,1.5215,1.5225,1.5215,1.5225, 7978
01/13/2020,17:00,1.5225,1.5225,1.5225,1.5225, 1784
01/13/2020,17:01,1.523,1.5235,1.523,1.5235, 11814
01/13/2020,17:02,1.5235,1.5235,1.5235,1.5235, 2736
01/13/2020,17:05,1.5235,1.5235,1.523,1.5235, 9858
01/13/2020,17:06,1.5235,1.524,1.5235,1.524, 3557
01/13/2020,17:07,1.524,1.524,1.524,1.524, 2957
01/13/2020,17:08,1.5245,1.5245,1.524,1.524, 2830
01/13/2020,17:10,1.524,1.524,1.5235,1.5235, 10175
01/13/2020,17:13,1.524,1.524,1.524,1.524, 2179
01/13/2020,17:15,1.5235,1.5235,1.5235,1.5235, 549
01/13/2020,17:16,1.524,1.524,1.524,1.524, 7227
01/13/2020,17:18,1.524,1.524,1.524,1.524, 802
01/13/2020,17:19,1.5243,1.5245,1.5243,1.5245, 4651
01/13/2020,17:21,1.5245,1.5245,1.5245,1.5245, 7978
01/13/2020,17:23,1.524,1.524,1.5235,1.5235, 7750
01/13/2020,17:24,1.5235,1.524,1.5235,1.5235, 17213
01/13/2020,17:26,1.523,1.523,1.523,1.523, 1199
01/13/2020,17:27,1.5225,1.5245,1.5225,1.5245, 4835
01/13/2020,17:29,1.5245,1.5245,1.5245,1.5245, 3669
01/13/2020,17:36,1.523,1.523,1.523,1.523, 908133
01/14/2020,09:01,1.547,1.547,1.5455,1.5455, 182
01/14/2020,09:01,1.543,1.543,1.543,1.543, 10
01/14/2020,09:04,1.536,1.536,1.5353,1.5353, 2274
01/14/2020,09:05,1.537,1.537,1.537,1.537, 847
01/14/2020,09:06,1.5355,1.5355,1.5355,1.5355, 306
01/14/2020,09:08,1.535,1.5355,1.5345,1.5355, 8841
01/14/2020,09:09,1.5335,1.5335,1.532,1.532, 9824
01/14/2020,09:09,1.533,1.533,1.533,1.533, 1067
01/14/2020,09:15,1.532,1.532,1.5295,1.5295, 9104
01/14/2020,09:20,1.5285,1.5295,1.5285,1.5295, 2258
01/14/2020,09:21,1.53,1.53,1.53,1.53, 196
01/14/2020,09:22,1.526,1.528,1.526,1.527, 4371
01/14/2020,09:22,1.527,1.527,1.527,1.527, 101
01/14/2020,09:26,1.5235,1.5235,1.5235,1.5235, 185
01/14/2020,09:27,1.5235,1.5235,1.5235,1.5235, 4658
01/14/2020,09:31,1.5235,1.5235,1.523,1.5235, 4552
01/14/2020,09:32,1.5255,1.5255,1.5255,1.5255, 869
01/14/2020,09:38,1.5255,1.5255,1.524,1.524, 1336
01/14/2020,09:41,1.524,1.524,1.524,1.524, 101
01/14/2020,09:49,1.5235,1.5235,1.5235,1.5235, 831
01/14/2020,09:56,1.5245,1.5245,1.5245,1.5245, 271
01/14/2020,09:57,1.5248,1.5248,1.5248,1.5248, 40
01/14/2020,09:59,1.5265,1.5265,1.5265,1.5265, 731
01/14/2020,09:59,1.528,1.528,1.528,1.528, 459
01/14/2020,10:03,1.5295,1.5295,1.5295,1.5295, 246
01/14/2020,10:08,1.5293,1.5293,1.5293,1.5293, 1956
01/14/2020,10:13,1.5305,1.531,1.5285,1.5285, 5913
01/14/2020,10:13,1.5285,1.5285,1.5285,1.5285, 418
01/14/2020,10:19,1.5305,1.5305,1.5305,1.5305, 1127
01/14/2020,10:19,1.5305,1.5305,1.5305,1.5305, 2857
01/14/2020,10:21,1.5305,1.5305,1.5305,1.5305, 3812
01/14/2020,10:23,1.5295,1.5295,1.5295,1.5295, 258
01/14/2020,10:25,1.53,1.5315,1.53,1.531, 5651
01/14/2020,10:26,1.5305,1.5305,1.527,1.527, 7438
01/14/2020,10:27,1.527,1.528,1.527,1.528, 7547
01/14/2020,10:31,1.528,1.528,1.528,1.528, 559
01/14/2020,10:35,1.5285,1.53,1.5285,1.53, 7281
01/14/2020,10:37,1.5305,1.531,1.5305,1.531, 5064
01/14/2020,10:41,1.529,1.529,1.5265,1.5265, 2857
01/14/2020,10:45,1.5275,1.5275,1.5275,1.5275, 256
01/14/2020,10:45,1.5262,1.5275,1.5262,1.5275, 868
01/14/2020,10:49,1.5275,1.528,1.5275,1.528, 2528
01/14/2020,10:53,1.5295,1.5325,1.5295,1.5325, 2105
01/14/2020,10:54,1.53,1.5315,1.53,1.5315, 7260
01/14/2020,10:58,1.532,1.5325,1.532,1.5325, 4595
01/14/2020,10:59,1.5305,1.5305,1.5298,1.5298, 3958
01/14/2020,10:59,1.5305,1.531,1.5305,1.531, 2525
01/14/2020,11:01,1.531,1.531,1.531,1.531, 1287
01/14/2020,11:03,1.5295,1.5295,1.529,1.529, 4390
01/14/2020,11:06,1.529,1.529,1.529,1.529, 2585
01/14/2020,11:06,1.529,1.5295,1.529,1.5295, 2743
01/14/2020,11:07,1.53,1.5305,1.53,1.53, 6882
01/14/2020,11:08,1.5285,1.5285,1.5285,1.5285, 1315
01/14/2020,11:13,1.5295,1.5295,1.5295,1.5295, 1853
01/14/2020,11:21,1.5295,1.5295,1.5295,1.5295, 3646
01/14/2020,11:23,1.529,1.529,1.5275,1.5275, 12649
01/14/2020,11:23,1.5275,1.5275,1.525,1.525, 11812
01/14/2020,11:24,1.525,1.525,1.5235,1.5235, 5422
01/14/2020,11:25,1.525,1.525,1.5225,1.5225, 12385
01/14/2020,11:26,1.521,1.521,1.521,1.521, 591
01/14/2020,11:28,1.523,1.5255,1.523,1.5255, 11073
01/14/2020,11:28,1.5255,1.5255,1.5255,1.5255, 811
01/14/2020,11:31,1.526,1.526,1.526,1.526, 2481
01/14/2020,11:37,1.529,1.529,1.529,1.529, 1298
01/14/2020,11:44,1.5275,1.5275,1.5275,1.5275, 4476
01/14/2020,11:49,1.528,1.5285,1.528,1.5285, 871
01/14/2020,11:50,1.529,1.529,1.529,1.529, 2167
01/14/2020,11:52,1.529,1.529,1.527,1.5275, 9636
01/14/2020,11:56,1.5275,1.5285,1.5275,1.5285, 9986
01/14/2020,11:59,1.529,1.529,1.529,1.529, 2809
01/14/2020,12:01,1.5285,1.5285,1.5285,1.5285, 1971
01/14/2020,12:02,1.53,1.53,1.529,1.529, 13878
01/14/2020,12:13,1.529,1.529,1.529,1.529, 1590
01/14/2020,12:18,1.5275,1.5275,1.526,1.5275, 6437
01/14/2020,12:18,1.527,1.527,1.5255,1.5255, 2280
01/14/2020,12:25,1.5265,1.527,1.5265,1.5265, 7422
01/14/2020,12:27,1.526,1.526,1.526,1.526, 2642
01/14/2020,12:33,1.5273,1.5273,1.5273,1.5273, 500
01/14/2020,12:44,1.527,1.527,1.525,1.525, 10161
01/14/2020,12:44,1.5245,1.5245,1.5245,1.5245, 1653
01/14/2020,12:48,1.524,1.524,1.524,1.524, 1654
01/14/2020,12:48,1.5245,1.5245,1.5245,1.5245, 6587
01/14/2020,12:49,1.524,1.524,1.522,1.522, 11580
01/14/2020,12:50,1.5225,1.5225,1.5225,1.5225, 6603
01/14/2020,12:52,1.5225,1.5225,1.5225,1.5225, 639
01/14/2020,12:54,1.5225,1.525,1.5225,1.525, 15573
01/14/2020,12:55,1.526,1.5265,1.526,1.5265, 808
01/14/2020,12:56,1.527,1.527,1.527,1.527, 4811
01/14/2020,13:03,1.5265,1.527,1.5265,1.527, 3279
01/14/2020,13:12,1.527,1.527,1.526,1.526, 7612
01/14/2020,13:16,1.5258,1.5258,1.5258,1.5258, 600
01/14/2020,13:22,1.5258,1.5258,1.5258,1.5258, 648
01/14/2020,13:27,1.5265,1.5265,1.5265,1.5265, 3269
01/14/2020,13:33,1.526,1.526,1.526,1.526, 218
01/14/2020,13:37,1.527,1.527,1.527,1.527, 385
01/14/2020,13:38,1.5265,1.5275,1.5265,1.5275, 4582
01/14/2020,13:41,1.53,1.53,1.5285,1.5285, 2596
01/14/2020,13:42,1.528,1.528,1.528,1.528, 3759
01/14/2020,13:43,1.528,1.528,1.528,1.528, 1625
01/14/2020,13:46,1.5265,1.5265,1.5265,1.5265, 89
01/14/2020,13:53,1.5265,1.5265,1.526,1.526, 3009
01/14/2020,13:59,1.527,1.527,1.527,1.527, 389
01/14/2020,14:01,1.527,1.5275,1.5265,1.5275, 9701
01/14/2020,14:03,1.5285,1.5285,1.5285,1.5285, 324
01/14/2020,14:08,1.528,1.528,1.528,1.528, 399
01/14/2020,14:10,1.528,1.528,1.528,1.528, 407
01/14/2020,14:11,1.527,1.529,1.527,1.529, 15335
01/14/2020,14:22,1.529,1.529,1.529,1.529, 2129
01/14/2020,14:24,1.53,1.53,1.53,1.53, 6376
01/14/2020,14:29,1.529,1.529,1.529,1.529, 2890
01/14/2020,14:31,1.529,1.5305,1.529,1.5305, 13578
01/14/2020,14:32,1.531,1.5315,1.531,1.5315, 9942
01/14/2020,14:34,1.532,1.532,1.532,1.532, 2695
01/14/2020,14:38,1.532,1.5335,1.532,1.5335, 20206
01/14/2020,14:39,1.5345,1.535,1.5345,1.535, 1352
01/14/2020,14:39,1.536,1.536,1.536,1.536, 1067
01/14/2020,14:41,1.5365,1.537,1.5365,1.537, 2238
01/14/2020,14:42,1.5355,1.5355,1.5355,1.5355, 2207
01/14/2020,14:43,1.535,1.535,1.535,1.535, 2065
01/14/2020,14:44,1.5355,1.5355,1.5355,1.5355, 483
01/14/2020,14:48,1.535,1.535,1.535,1.535, 951
01/14/2020,14:50,1.5355,1.5355,1.5355,1.5355, 434
01/14/2020,14:51,1.5355,1.5355,1.5355,1.5355, 396
01/14/2020,14:53,1.5355,1.5355,1.5355,1.5355, 8068
01/14/2020,14:54,1.5355,1.5355,1.5355,1.5355, 1156
01/14/2020,14:55,1.5355,1.5355,1.5355,1.5355, 458
01/14/2020,14:56,1.5345,1.5345,1.5345,1.5345, 1025
01/14/2020,14:57,1.5335,1.5335,1.5325,1.5335, 29777
01/14/2020,14:59,1.533,1.533,1.5315,1.5315, 6251
01/14/2020,15:00,1.5305,1.5305,1.5295,1.5295, 5404
01/14/2020,15:03,1.5295,1.53,1.5295,1.53, 10737
01/14/2020,15:03,1.5305,1.5315,1.5305,1.5315, 3329
01/14/2020,15:05,1.531,1.531,1.531,1.531, 3727
01/14/2020,15:09,1.531,1.531,1.53,1.5305, 4113
01/14/2020,15:10,1.5305,1.531,1.5305,1.531, 2298
01/14/2020,15:12,1.5315,1.5315,1.5315,1.5315, 394
01/14/2020,15:12,1.5315,1.5315,1.5315,1.5315, 359
01/14/2020,15:13,1.5315,1.5315,1.5315,1.5315, 453
01/14/2020,15:14,1.5315,1.5315,1.5315,1.5315, 637
01/14/2020,15:18,1.531,1.531,1.531,1.531, 2634
01/14/2020,15:19,1.5315,1.5315,1.5315,1.5315, 1645
01/14/2020,15:20,1.5313,1.5313,1.5313,1.5313, 20
01/14/2020,15:21,1.5315,1.5315,1.5315,1.5315, 445
01/14/2020,15:23,1.5312,1.5312,1.5312,1.5312, 2000
01/14/2020,15:26,1.5315,1.5315,1.5315,1.5315, 411
01/14/2020,15:27,1.531,1.531,1.531,1.531, 470
01/14/2020,15:29,1.5315,1.5315,1.5315,1.5315, 378
01/14/2020,15:29,1.531,1.531,1.531,1.531, 1885
01/14/2020,15:31,1.5315,1.532,1.5315,1.5315, 10021
01/14/2020,15:31,1.5325,1.5325,1.5325,1.5325, 409
01/14/2020,15:33,1.5325,1.5325,1.531,1.5315, 5097
01/14/2020,15:33,1.5315,1.5315,1.5315,1.5315, 7759
01/14/2020,15:34,1.5325,1.5325,1.5325,1.5325, 216
01/14/2020,15:35,1.5325,1.533,1.5325,1.533, 2468
01/14/2020,15:36,1.533,1.533,1.533,1.533, 369
01/14/2020,15:37,1.5325,1.5325,1.532,1.532, 7296
01/14/2020,15:40,1.5325,1.534,1.5325,1.534, 15408
01/14/2020,15:40,1.5345,1.535,1.5345,1.535, 802
01/14/2020,15:44,1.534,1.534,1.5335,1.5335, 9887
01/14/2020,15:44,1.5325,1.5325,1.5315,1.5315, 13557
01/14/2020,15:46,1.5315,1.5315,1.5315,1.5315, 2928
01/14/2020,15:49,1.532,1.532,1.5315,1.532, 10145
01/14/2020,15:50,1.5315,1.5315,1.5315,1.5315, 3863
01/14/2020,15:52,1.5325,1.5325,1.5325,1.5325, 3390
01/14/2020,15:52,1.532,1.532,1.5315,1.5315, 1308
01/14/2020,15:53,1.5315,1.5315,1.5315,1.5315, 1426
01/14/2020,15:55,1.5315,1.5315,1.5315,1.5315, 250
01/14/2020,15:59,1.5325,1.5325,1.5325,1.5325, 410
01/14/2020,16:00,1.5315,1.5315,1.5315,1.5315, 1469
01/14/2020,16:01,1.532,1.532,1.532,1.532, 2425
01/14/2020,16:02,1.5325,1.5325,1.5325,1.5325, 434
01/14/2020,16:03,1.5325,1.5335,1.5325,1.5335, 8113
01/14/2020,16:05,1.535,1.535,1.535,1.535, 1484
01/14/2020,16:06,1.535,1.5355,1.535,1.5355, 3295
01/14/2020,16:10,1.5355,1.536,1.5355,1.536, 8519
01/14/2020,16:11,1.5362,1.537,1.5362,1.5365, 2459
01/14/2020,16:12,1.5365,1.5365,1.5365,1.5365, 658
01/14/2020,16:13,1.536,1.536,1.536,1.536, 5459
01/14/2020,16:13,1.5365,1.5365,1.5365,1.5365, 1790
01/14/2020,16:17,1.5365,1.5365,1.5365,1.5365, 438
01/14/2020,16:18,1.5365,1.5365,1.536,1.536, 8482
01/14/2020,16:20,1.536,1.536,1.5355,1.5355, 5776
01/14/2020,16:20,1.535,1.535,1.5335,1.5335, 8335
01/14/2020,16:23,1.533,1.533,1.533,1.533, 1262
01/14/2020,16:24,1.5321,1.5321,1.532,1.532, 5262
01/14/2020,16:27,1.532,1.5325,1.5315,1.5325, 18105
01/14/2020,16:28,1.533,1.533,1.533,1.533, 952
01/14/2020,16:30,1.533,1.5355,1.533,1.5355, 20455
01/14/2020,16:31,1.537,1.537,1.5365,1.5365, 1697
01/14/2020,16:33,1.537,1.537,1.537,1.537, 1609
01/14/2020,16:34,1.537,1.5375,1.537,1.5375, 2804
01/14/2020,16:35,1.5375,1.539,1.5375,1.538, 7692
01/14/2020,16:35,1.538,1.538,1.538,1.538, 2314
01/14/2020,16:38,1.538,1.538,1.538,1.538, 2016
01/14/2020,16:40,1.538,1.538,1.538,1.538, 222
01/14/2020,16:41,1.538,1.538,1.537,1.537, 4094
01/14/2020,16:42,1.5375,1.5375,1.5375,1.5375, 421
01/14/2020,16:45,1.5375,1.5375,1.5375,1.5375, 2667
01/14/2020,16:46,1.536,1.536,1.529,1.53, 180748
01/14/2020,16:46,1.53,1.53,1.53,1.53, 671
01/14/2020,16:47,1.53,1.53,1.5295,1.53, 10182
01/14/2020,16:49,1.531,1.5335,1.531,1.5335, 13041
01/14/2020,16:49,1.534,1.534,1.534,1.534, 1572
01/14/2020,16:51,1.534,1.534,1.533,1.5335, 14555
01/14/2020,17:01,1.5335,1.535,1.5335,1.5345, 12021
01/14/2020,17:02,1.5355,1.536,1.5355,1.536, 8284
01/14/2020,17:02,1.5365,1.5365,1.5365,1.5365, 412
01/14/2020,17:04,1.5365,1.537,1.5365,1.537, 1127
01/14/2020,17:04,1.537,1.5375,1.537,1.5375, 2408
01/14/2020,17:05,1.5375,1.539,1.5375,1.5385, 5287
01/14/2020,17:06,1.539,1.539,1.5385,1.5385, 2332
01/14/2020,17:08,1.536,1.538,1.535,1.535, 52698
01/14/2020,17:09,1.535,1.535,1.535,1.535, 6718
01/14/2020,17:10,1.535,1.535,1.535,1.535, 3637
01/14/2020,17:10,1.5345,1.5345,1.5345,1.5345, 3744
01/14/2020,17:11,1.5345,1.5345,1.534,1.534, 3146
01/14/2020,17:13,1.5345,1.5345,1.5345,1.5345, 354
01/14/2020,17:15,1.535,1.535,1.535,1.535, 6144
01/14/2020,17:16,1.535,1.535,1.5345,1.5345, 690
01/14/2020,17:17,1.535,1.535,1.535,1.535, 7864
01/14/2020,17:18,1.535,1.535,1.535,1.535, 8368
01/14/2020,17:19,1.535,1.535,1.5345,1.5345, 7610
01/14/2020,17:19,1.535,1.535,1.535,1.535, 370
01/14/2020,17:20,1.535,1.535,1.535,1.535, 4415
01/14/2020,17:21,1.535,1.535,1.5345,1.5345, 7957
01/14/2020,17:23,1.535,1.535,1.535,1.535, 6590
01/14/2020,17:23,1.5345,1.5345,1.5345,1.5345, 4129
01/14/2020,17:24,1.534,1.534,1.5335,1.5335, 7632
01/14/2020,17:26,1.534,1.536,1.5338,1.536, 11519
01/14/2020,17:26,1.5365,1.5375,1.5365,1.5375, 4231
01/14/2020,17:27,1.537,1.537,1.537,1.537, 907
01/14/2020,17:28,1.5365,1.537,1.5365,1.537, 3151
01/14/2020,17:30,1.538,1.538,1.536,1.5365, 10780
01/14/2020,17:30,1.5365,1.5365,1.5355,1.5355, 1855
01/14/2020,17:36,1.536,1.536,1.536,1.536, 1292601
01/15/2020,09:01,1.5435,1.5435,1.543,1.5435, 395
01/15/2020,09:01,1.538,1.538,1.538,1.538, 457
01/15/2020,09:03,1.538,1.538,1.538,1.538, 2701
01/15/2020,09:09,1.5355,1.5355,1.5355,1.5355, 962
01/15/2020,09:11,1.532,1.532,1.532,1.532, 4381
01/15/2020,09:12,1.529,1.529,1.5285,1.5285, 1701
01/15/2020,09:15,1.528,1.529,1.528,1.529, 9638
01/15/2020,09:22,1.529,1.5295,1.529,1.5295, 1490
01/15/2020,09:23,1.53,1.5305,1.53,1.5305, 3109
01/15/2020,09:27,1.533,1.533,1.533,1.533, 25
01/15/2020,09:28,1.5335,1.5345,1.5335,1.5345, 1612
01/15/2020,09:29,1.5345,1.5345,1.5345,1.5345, 229
01/15/2020,09:31,1.5345,1.5345,1.534,1.534, 3878
01/15/2020,09:32,1.535,1.5355,1.535,1.5355, 1059
01/15/2020,09:33,1.536,1.536,1.536,1.536, 620
01/15/2020,09:34,1.536,1.5365,1.536,1.5365, 648
01/15/2020,09:36,1.536,1.5378,1.536,1.5378, 2329
01/15/2020,09:38,1.5395,1.5395,1.5395,1.5395, 237
01/15/2020,09:46,1.5365,1.5365,1.5365,1.5365, 1500
01/15/2020,09:48,1.536,1.5365,1.536,1.5365, 2822
01/15/2020,09:53,1.5345,1.5345,1.534,1.534, 2162
01/15/2020,09:56,1.5345,1.536,1.5345,1.536, 1396
01/15/2020,10:01,1.5355,1.5355,1.5355,1.5355, 3056
01/15/2020,10:01,1.535,1.535,1.535,1.535, 2127
01/15/2020,10:02,1.535,1.535,1.534,1.535, 3542
01/15/2020,10:04,1.535,1.535,1.535,1.535, 522
01/15/2020,10:11,1.5345,1.5345,1.5345,1.5345, 5034
01/15/2020,10:13,1.5335,1.5335,1.533,1.533, 2153
01/15/2020,10:17,1.5345,1.5345,1.5345,1.5345, 1473
01/15/2020,10:25,1.5345,1.5345,1.5345,1.5345, 3848
01/15/2020,10:26,1.5325,1.5325,1.531,1.531, 4593
01/15/2020,10:27,1.53,1.53,1.529,1.529, 4537
01/15/2020,10:28,1.5275,1.5275,1.5275,1.5275, 532
01/15/2020,10:31,1.5275,1.529,1.5275,1.529, 6480
01/15/2020,10:32,1.5275,1.529,1.5265,1.529, 7891
01/15/2020,10:32,1.5285,1.5285,1.5285,1.5285, 416
01/15/2020,10:33,1.526,1.526,1.526,1.526, 1004
01/15/2020,10:37,1.5255,1.5255,1.5255,1.5255, 8243
01/15/2020,10:37,1.5263,1.5263,1.5263,1.5263, 1303
01/15/2020,10:39,1.526,1.526,1.526,1.526, 706
01/15/2020,10:42,1.5255,1.5255,1.5255,1.5255, 590
01/15/2020,10:53,1.5265,1.5265,1.5265,1.5265, 245
01/15/2020,10:54,1.5255,1.5255,1.525,1.525, 299
01/15/2020,10:55,1.526,1.526,1.526,1.526, 26
01/15/2020,10:57,1.5265,1.5265,1.5265,1.5265, 1461
01/15/2020,10:58,1.5275,1.5275,1.5275,1.5275, 172
01/15/2020,11:04,1.5275,1.5275,1.5257,1.5257, 7243
01/15/2020,11:07,1.5255,1.5255,1.523,1.523, 46470
01/15/2020,11:12,1.522,1.522,1.5215,1.5215, 2583
01/15/2020,11:14,1.5205,1.5205,1.5205,1.5205, 354
01/15/2020,11:16,1.5225,1.5225,1.5225,1.5225, 3474
01/15/2020,11:20,1.523,1.523,1.523,1.523, 265
01/15/2020,11:21,1.5235,1.5235,1.5235,1.5235, 1326
01/15/2020,11:22,1.5235,1.5235,1.5235,1.5235, 2268
01/15/2020,11:25,1.524,1.524,1.5225,1.5225, 3476
01/15/2020,11:28,1.5235,1.5235,1.5235,1.5235, 1837
01/15/2020,11:31,1.5237,1.5237,1.5237,1.5237, 1636
01/15/2020,11:35,1.523,1.523,1.523,1.523, 4814
01/15/2020,11:40,1.5218,1.5218,1.5218,1.5218, 3000
01/15/2020,11:46,1.523,1.523,1.523,1.523, 1500
01/15/2020,11:48,1.523,1.524,1.522,1.522, 17910
01/15/2020,11:51,1.5205,1.521,1.5205,1.521, 5721
01/15/2020,11:51,1.52,1.52,1.52,1.52, 1805
01/15/2020,11:56,1.522,1.525,1.522,1.525, 4886
01/15/2020,11:56,1.5245,1.5245,1.524,1.524, 5037
01/15/2020,11:57,1.5235,1.5235,1.5235,1.5235, 1616
01/15/2020,11:58,1.523,1.523,1.5225,1.5225, 3954
01/15/2020,12:00,1.521,1.5225,1.521,1.5225, 1313
01/15/2020,12:02,1.5225,1.5225,1.522,1.522, 5464
01/15/2020,12:12,1.5217,1.5217,1.5215,1.5215, 2995
01/15/2020,12:14,1.5217,1.5217,1.5217,1.5217, 60
01/15/2020,12:22,1.522,1.522,1.522,1.522, 8932
01/15/2020,12:28,1.5215,1.5225,1.5215,1.522, 13602
01/15/2020,12:28,1.522,1.522,1.522,1.522, 2729
01/15/2020,12:30,1.5215,1.522,1.5215,1.5215, 6303
01/15/2020,12:34,1.5215,1.5215,1.5215,1.5215, 4958
01/15/2020,12:36,1.5215,1.5215,1.5215,1.5215, 322
01/15/2020,12:37,1.521,1.5215,1.521,1.521, 5350
01/15/2020,12:42,1.5205,1.5205,1.5205,1.5205, 8059
01/15/2020,12:44,1.5205,1.521,1.5205,1.5205, 8815
01/15/2020,12:46,1.52,1.52,1.5195,1.5195, 12228
01/15/2020,12:55,1.5195,1.5195,1.5195,1.5195, 3246
01/15/2020,12:56,1.519,1.519,1.519,1.519, 1621
01/15/2020,12:58,1.5209,1.5209,1.5209,1.5209, 3150
01/15/2020,12:59,1.5205,1.521,1.5205,1.521, 6842
01/15/2020,13:00,1.5225,1.5225,1.522,1.522, 3112
01/15/2020,13:03,1.5185,1.519,1.5185,1.519, 5722
01/15/2020,13:07,1.519,1.519,1.5185,1.5185, 7903
01/15/2020,13:08,1.519,1.519,1.519,1.519, 755
01/15/2020,13:09,1.5205,1.5205,1.5205,1.5205, 530
01/15/2020,13:14,1.521,1.521,1.521,1.521, 1983
01/15/2020,13:21,1.5207,1.5207,1.5207,1.5207, 124
01/15/2020,13:22,1.5208,1.5208,1.5208,1.5208, 1579
01/15/2020,13:24,1.521,1.521,1.519,1.5199, 12555
01/15/2020,13:26,1.5205,1.521,1.519,1.521, 17140
01/15/2020,13:27,1.5203,1.5203,1.5203,1.5203, 600
01/15/2020,13:29,1.52,1.52,1.52,1.52, 6193
01/15/2020,13:34,1.519,1.519,1.519,1.519, 3637
01/15/2020,13:37,1.519,1.519,1.519,1.519, 3602
01/15/2020,13:38,1.518,1.518,1.518,1.518, 4133
01/15/2020,13:42,1.5185,1.5185,1.5185,1.5185, 3436
01/15/2020,13:43,1.5185,1.5185,1.5185,1.5185, 3733
01/15/2020,13:55,1.519,1.519,1.519,1.519, 5502
01/15/2020,13:58,1.5185,1.5185,1.5185,1.5185, 2324
01/15/2020,14:02,1.518,1.518,1.518,1.518, 972
01/15/2020,14:03,1.518,1.518,1.518,1.518, 422
01/15/2020,14:05,1.518,1.5195,1.518,1.5195, 7560
01/15/2020,14:06,1.519,1.519,1.519,1.519, 1432
01/15/2020,14:11,1.5195,1.5195,1.5195,1.5195, 1175
01/15/2020,14:16,1.521,1.521,1.521,1.521, 1118
01/15/2020,14:24,1.5203,1.5203,1.5203,1.5203, 306
01/15/2020,14:27,1.521,1.521,1.521,1.521, 1538
01/15/2020,14:31,1.521,1.521,1.521,1.521, 619
01/15/2020,14:33,1.5205,1.5205,1.52,1.52, 12582
01/15/2020,14:35,1.5205,1.5215,1.5205,1.5215, 5724
01/15/2020,14:35,1.521,1.521,1.5205,1.5205, 4722
01/15/2020,14:36,1.5205,1.5205,1.5205,1.5205, 3901
01/15/2020,14:37,1.5205,1.5205,1.5205,1.5205, 1062
01/15/2020,14:40,1.52,1.52,1.52,1.52, 1996
01/15/2020,14:41,1.5195,1.5195,1.5195,1.5195, 2517
01/15/2020,14:42,1.5195,1.52,1.5195,1.52, 6803
01/15/2020,14:50,1.521,1.521,1.521,1.521, 1547
01/15/2020,14:51,1.521,1.521,1.521,1.521, 1570
01/15/2020,14:54,1.5205,1.521,1.5205,1.521, 5840
01/15/2020,14:58,1.5203,1.5203,1.5203,1.5203, 477
01/15/2020,15:01,1.5205,1.5205,1.5205,1.5205, 5222
01/15/2020,15:03,1.521,1.521,1.521,1.521, 2977
01/15/2020,15:04,1.521,1.521,1.52,1.52, 33092
01/15/2020,15:11,1.5205,1.5205,1.52,1.52, 5359
01/15/2020,15:14,1.52,1.52,1.52,1.52, 366
01/15/2020,15:15,1.52,1.52,1.52,1.52, 424
01/15/2020,15:18,1.5195,1.5195,1.5195,1.5195, 1848
01/15/2020,15:19,1.519,1.519,1.519,1.519, 1996
01/15/2020,15:30,1.52,1.52,1.52,1.52, 544
01/15/2020,15:31,1.52,1.52,1.52,1.52, 6329
01/15/2020,15:35,1.5205,1.5205,1.5203,1.5205, 18179
01/15/2020,15:36,1.521,1.521,1.521,1.521, 3559
01/15/2020,15:38,1.5225,1.5225,1.522,1.522, 4815
01/15/2020,15:38,1.522,1.522,1.522,1.522, 5
01/15/2020,15:39,1.5215,1.5215,1.5215,1.5215, 892
01/15/2020,15:41,1.522,1.522,1.5215,1.5215, 7793
01/15/2020,15:43,1.5215,1.5215,1.521,1.521, 6359
01/15/2020,15:43,1.5215,1.5215,1.5215,1.5215, 574
01/15/2020,15:47,1.521,1.521,1.521,1.521, 3056
01/15/2020,15:47,1.521,1.521,1.52,1.52, 14947
01/15/2020,15:52,1.5205,1.5205,1.5205,1.5205, 650
01/15/2020,15:55,1.521,1.521,1.521,1.521, 1897
01/15/2020,15:56,1.52,1.52,1.52,1.52, 4383
01/15/2020,15:57,1.52,1.52,1.52,1.52, 1435
01/15/2020,15:58,1.5205,1.5205,1.5205,1.5205, 2090
01/15/2020,16:01,1.521,1.521,1.521,1.521, 1638
01/15/2020,16:03,1.521,1.521,1.521,1.521, 1635
01/15/2020,16:04,1.52,1.52,1.52,1.52, 6191
01/15/2020,16:06,1.52,1.5205,1.52,1.5205, 11013
01/15/2020,16:07,1.521,1.521,1.521,1.521, 651
01/15/2020,16:08,1.521,1.521,1.521,1.521, 390
01/15/2020,16:10,1.5205,1.5205,1.5205,1.5205, 4113
01/15/2020,16:11,1.521,1.521,1.521,1.521, 1087
01/15/2020,16:12,1.5205,1.5205,1.5205,1.5205, 4362
01/15/2020,16:16,1.5205,1.5207,1.5205,1.5207, 715
01/15/2020,16:20,1.5208,1.5208,1.5208,1.5208, 2
01/15/2020,16:22,1.5205,1.5205,1.52,1.5205, 15890
01/15/2020,16:24,1.52,1.52,1.5195,1.52, 13099
01/15/2020,16:25,1.5208,1.5215,1.5208,1.5215, 4618
01/15/2020,16:28,1.521,1.521,1.521,1.521, 11975
01/15/2020,16:29,1.5208,1.5208,1.5205,1.5205, 3821
01/15/2020,16:32,1.52,1.52,1.52,1.52, 6928
01/15/2020,16:34,1.5195,1.52,1.5195,1.5195, 1432
01/15/2020,16:34,1.52,1.5205,1.52,1.5205, 6407
01/15/2020,16:37,1.52,1.5205,1.52,1.52, 7913
01/15/2020,16:38,1.52,1.52,1.52,1.52, 205
01/15/2020,16:39,1.5205,1.5205,1.52,1.52, 7708
01/15/2020,16:39,1.5205,1.5205,1.52,1.52, 8477
01/15/2020,16:41,1.52,1.52,1.52,1.52, 240
01/15/2020,16:42,1.52,1.5205,1.52,1.52, 15093
01/15/2020,16:43,1.52,1.52,1.52,1.52, 1570
01/15/2020,16:44,1.5205,1.5205,1.52,1.52, 9229
01/15/2020,16:45,1.5205,1.5205,1.52,1.52, 5936
01/15/2020,16:46,1.5195,1.52,1.5195,1.52, 13418
01/15/2020,16:47,1.52,1.52,1.52,1.52, 560
01/15/2020,16:48,1.5205,1.5205,1.52,1.52, 4666
01/15/2020,16:49,1.5205,1.5205,1.52,1.52, 27767
01/15/2020,16:52,1.5205,1.5205,1.52,1.52, 23683
01/15/2020,16:53,1.5205,1.5205,1.52,1.52, 5577
01/15/2020,16:54,1.52,1.52,1.52,1.52, 5240
