04/01/2020,15:31,80.56,80.56,80.56,80.56, 15596
04/01/2020,15:31,80.2,80.5,80.07,80.5, 2475
04/01/2020,15:32,80.52,80.73,80.34,80.73, 300
04/01/2020,15:33,80.48,80.69,80.43,80.43, 800
04/01/2020,15:33,80.63,80.63,80.16,80.21, 2400
04/01/2020,15:34,80.41,80.69,80.41,80.69, 200
04/01/2020,15:34,80.45,80.69,80.45,80.69, 212
04/01/2020,15:35,80.7,80.73,80.57,80.73, 1550
04/01/2020,15:35,80.83,80.9,80.83,80.9, 300
04/01/2020,15:36,80.75,81.09,80.57,80.57, 1800
04/01/2020,15:36,80.39,80.73,80.39,80.55, 1200
04/01/2020,15:37,80.56,80.94,80.55,80.94, 1300
04/01/2020,15:37,80.92,81.32,80.74,81.32, 2153
04/01/2020,15:38,81.53,81.53,81.36,81.36, 300
04/01/2020,15:38,81.49,81.5,81.08,81.08, 1400
04/01/2020,15:39,81.2,81.48,81.2,81.31, 2654
04/01/2020,15:40,81.36,81.5,81.26,81.36, 2300
04/01/2020,15:41,81.15,81.38,80.86,81.38, 1200
04/01/2020,15:41,81.06,81.06,80.83,80.93, 2400
04/01/2020,15:42,81.12,81.17,81.12,81.17, 278
04/01/2020,15:43,81.15,81.42,81.03,81.42, 1460
04/01/2020,15:43,81.46,81.46,81.36,81.36, 1617
04/01/2020,15:44,81.37,81.56,81.37,81.49, 1439
04/01/2020,15:45,81.49,81.57,81.06,81.06, 3437
04/01/2020,15:45,81.21,81.4,81.2,81.36, 1800
04/01/2020,15:46,81.47,81.48,81.17,81.18, 2236
04/01/2020,15:47,81.13,81.13,80.96,80.98, 1300
04/01/2020,15:47,80.91,81.01,80.89,80.95, 2300
04/01/2020,15:48,80.9,81.02,80.8,80.89, 2800
04/01/2020,15:49,80.68,80.9,80.68,80.73, 2300
04/01/2020,15:50,80.87,81.02,80.73,80.84, 3600
04/01/2020,15:51,80.76,80.84,80.76,80.83, 1300
04/01/2020,15:51,80.85,81.12,80.85,81.11, 1300
04/01/2020,15:52,81.22,81.24,81.09,81.16, 1110
04/01/2020,15:53,81.2,81.2,80.86,81, 3400
04/01/2020,15:54,80.92,80.95,80.72,80.77, 4500
04/01/2020,15:55,80.75,80.88,80.41,80.6, 3000
04/01/2020,15:56,80.43,80.61,80.42,80.42, 2100
04/01/2020,15:56,80.48,80.5,80.37,80.38, 1321
04/01/2020,15:57,80.49,80.62,80.23,80.23, 4580
04/01/2020,15:58,80.28,80.28,80.09,80.09, 1720
04/01/2020,15:59,80.26,80.33,80.12,80.23, 3654
04/01/2020,16:00,80.25,80.45,80.1,80.39, 5948
04/01/2020,16:00,80.46,80.47,80.32,80.38, 2500
04/01/2020,16:01,80.45,80.51,80.37,80.41, 1400
04/01/2020,16:02,80.39,80.39,80.08,80.11, 2506
04/01/2020,16:03,80.22,80.27,80.08,80.1, 1700
04/01/2020,16:03,80.23,80.49,80.22,80.48, 2500
04/01/2020,16:04,80.49,80.84,80.49,80.77, 1900
04/01/2020,16:05,80.74,80.76,80.56,80.58, 1600
04/01/2020,16:06,80.63,80.65,80.4,80.52, 2300
04/01/2020,16:06,80.42,80.53,80.36,80.48, 3400
04/01/2020,16:07,80.54,80.68,80.39,80.43, 2514
04/01/2020,16:08,80.4,80.75,80.4,80.68, 2400
04/01/2020,16:09,80.79,81.1,80.79,80.89, 3600
04/01/2020,16:10,80.9,81.07,80.84,80.94, 3831
04/01/2020,16:11,81.01,81.04,80.89,81.04, 2038
04/01/2020,16:11,81.03,81.1,80.88,81.09, 1200
04/01/2020,16:12,81.11,81.32,81.11,81.15, 5600
04/01/2020,16:13,81.18,81.45,81.18,81.43, 2200
04/01/2020,16:14,81.52,81.53,81.22,81.24, 2490
04/01/2020,16:15,81.32,81.56,81.22,81.38, 4300
04/01/2020,16:16,81.38,81.66,81.38,81.55, 1400
04/01/2020,16:17,81.65,81.81,81.53,81.81, 2505
04/01/2020,16:18,81.92,81.92,81.69,81.73, 2392
04/01/2020,16:18,81.69,81.77,81.64,81.71, 1600
04/01/2020,16:19,81.69,81.9,81.63,81.72, 1800
04/01/2020,16:20,81.78,81.78,81.45,81.59, 2000
04/01/2020,16:21,81.65,81.69,81.61,81.67, 1100
04/01/2020,16:22,81.65,81.87,81.61,81.75, 2700
04/01/2020,16:23,81.77,81.77,81.64,81.64, 2900
04/01/2020,16:24,81.53,81.66,81.48,81.54, 3000
04/01/2020,16:25,81.47,81.52,81.37,81.4, 3223
04/01/2020,16:26,81.42,81.64,81.33,81.55, 4175
04/01/2020,16:27,81.57,81.58,81.57,81.58, 250
04/01/2020,16:27,81.55,81.7,81.52,81.52, 2000
04/01/2020,16:28,81.59,81.67,81.46,81.48, 1400
04/01/2020,16:29,81.55,81.65,81.51,81.56, 2433
04/01/2020,16:30,81.57,81.57,81.53,81.54, 1200
04/01/2020,16:31,81.62,81.84,81.61,81.75, 1200
04/01/2020,16:31,81.73,81.76,81.67,81.67, 851
04/01/2020,16:32,81.79,81.91,81.79,81.9, 2200
04/01/2020,16:33,81.91,82.1,81.91,82.1, 600
04/01/2020,16:33,82.19,82.3,82.16,82.19, 1585
04/01/2020,16:34,82.26,82.28,82.18,82.18, 2000
04/01/2020,16:35,82.1,82.17,81.88,81.88, 5066
04/01/2020,16:36,81.86,82.01,81.86,81.96, 2600
04/01/2020,16:36,81.92,82.07,81.88,82.07, 1000
04/01/2020,16:37,82.12,82.12,81.99,82.09, 1420
04/01/2020,16:38,81.98,82.01,81.89,81.92, 904
04/01/2020,16:39,81.92,82.13,81.92,81.93, 2457
04/01/2020,16:39,81.97,81.97,81.86,81.86, 700
04/01/2020,16:41,81.86,81.87,81.62,81.67, 2300
04/01/2020,16:41,81.69,81.71,81.61,81.61, 600
04/01/2020,16:42,81.64,81.65,81.59,81.63, 2401
04/01/2020,16:43,81.57,81.87,81.57,81.77, 2235
04/01/2020,16:44,81.85,81.89,81.65,81.65, 1553
04/01/2020,16:45,81.64,81.79,81.52,81.79, 2519
04/01/2020,16:46,81.81,81.81,81.62,81.66, 2214
04/01/2020,16:47,81.61,82.02,81.61,81.71, 2600
04/01/2020,16:47,81.74,81.82,81.74,81.81, 411
04/01/2020,16:48,81.69,81.7,81.59,81.7, 1200
04/01/2020,16:49,81.58,81.77,81.58,81.69, 3706
04/01/2020,16:50,81.68,81.93,81.68,81.75, 2200
04/01/2020,16:51,81.75,81.75,81.53,81.53, 1020
04/01/2020,16:52,81.55,81.6,81.47,81.48, 2300
04/01/2020,16:53,81.51,81.57,81.48,81.57, 2000
04/01/2020,16:54,81.57,81.75,81.55,81.68, 3500
04/01/2020,16:55,81.8,81.81,81.68,81.69, 3562
04/01/2020,16:56,81.62,81.69,81.49,81.49, 1100
04/01/2020,16:57,81.49,81.49,81.37,81.39, 3406
04/01/2020,16:58,81.4,81.41,81.33,81.4, 2197
04/01/2020,16:58,81.38,81.39,81.18,81.22, 3485
04/01/2020,16:59,81.21,81.21,81.09,81.09, 1538
04/01/2020,17:00,81.13,81.22,81.08,81.18, 2484
04/01/2020,17:01,81.19,81.28,81.09,81.24, 3000
04/01/2020,17:02,81.22,81.22,81.12,81.15, 1100
04/01/2020,17:03,81.19,81.19,80.91,81.03, 5700
04/01/2020,17:05,81.1,81.31,81.1,81.26, 2634
04/01/2020,17:06,81.3,81.37,81.14,81.14, 4826
04/01/2020,17:07,81.18,81.21,81.11,81.16, 2700
04/01/2020,17:08,81.15,81.17,81.09,81.1, 1591
04/01/2020,17:10,81.11,81.15,81.05,81.15, 2912
04/01/2020,17:11,81.18,81.49,81.12,81.49, 1600
04/01/2020,17:13,81.51,81.57,81.29,81.32, 3000
04/01/2020,17:14,81.28,81.29,81.22,81.22, 800
04/01/2020,17:15,81.22,81.35,81.11,81.34, 3353
04/01/2020,17:16,81.37,81.44,81.22,81.33, 2634
04/01/2020,17:18,81.43,81.45,81.35,81.38, 1531
04/01/2020,17:19,81.42,81.64,81.42,81.46, 3650
04/01/2020,17:20,81.5,81.5,81.34,81.45, 1200
04/01/2020,17:21,81.44,81.49,81.33,81.39, 1600
04/01/2020,17:22,81.5,81.65,81.48,81.54, 2309
04/01/2020,17:24,81.42,81.42,81.35,81.39, 1100
04/01/2020,17:25,81.32,81.32,81.21,81.31, 1571
04/01/2020,17:26,81.32,81.32,81.25,81.32, 1700
04/01/2020,17:28,81.31,81.31,81.16,81.27, 2197
04/01/2020,17:29,81.29,81.29,81.15,81.15, 3113
04/01/2020,17:30,81.12,81.21,81.08,81.17, 4021
04/01/2020,17:31,81.05,81.12,81.04,81.11, 500
04/01/2020,17:33,81.13,81.35,81.13,81.34, 6340
04/01/2020,17:35,81.26,81.39,81.23,81.24, 7218
04/01/2020,17:36,81.3,81.55,81.3,81.45, 2418
04/01/2020,17:38,81.54,81.66,81.41,81.61, 3920
04/01/2020,17:40,81.57,81.73,81.51,81.53, 2906
04/01/2020,17:42,81.52,81.52,81.35,81.35, 2600
04/01/2020,17:44,81.26,81.27,81.16,81.22, 2243
04/01/2020,17:46,81.18,81.33,81.17,81.33, 4077
04/01/2020,17:48,81.34,81.34,80.97,81.1, 4133
04/01/2020,17:51,81.12,81.26,81.07,81.19, 5749
04/01/2020,17:53,81.2,81.32,81.14,81.29, 3345
04/01/2020,17:55,81.25,81.26,81.09,81.13, 5691
04/01/2020,17:57,81.17,81.32,81.11,81.11, 3299
04/01/2020,17:59,81.09,81.15,80.79,80.79, 11867
04/01/2020,18:02,80.76,80.76,80.42,80.42, 3200
04/01/2020,18:04,80.46,80.46,80.34,80.35, 7707
04/01/2020,18:06,80.37,80.4,80.21,80.32, 8991
04/01/2020,18:08,80.28,80.45,80.17,80.39, 6932
04/01/2020,18:10,80.44,80.57,80.37,80.44, 4226
04/01/2020,18:11,80.46,80.56,80.46,80.55, 2088
04/01/2020,18:12,80.56,80.71,80.56,80.71, 1000
04/01/2020,18:13,80.72,80.76,80.68,80.68, 1768
04/01/2020,18:14,80.61,80.61,80.51,80.57, 1400
04/01/2020,18:15,80.69,80.81,80.68,80.79, 2300
04/01/2020,18:16,80.91,80.94,80.81,80.81, 1100
04/01/2020,18:17,80.92,80.92,80.76,80.76, 900
04/01/2020,18:18,80.69,80.83,80.69,80.81, 1277
04/01/2020,18:19,80.8,80.81,80.64,80.73, 1607
04/01/2020,18:20,80.77,80.78,80.66,80.74, 1100
04/01/2020,18:21,80.67,80.72,80.63,80.67, 2802
04/01/2020,18:22,80.71,80.74,80.62,80.74, 1929
04/01/2020,18:23,80.79,80.79,80.71,80.71, 1600
04/01/2020,18:24,80.71,80.76,80.7,80.76, 1100
04/01/2020,18:25,80.81,80.82,80.72,80.72, 900
04/01/2020,18:26,80.64,80.81,80.64,80.81, 1300
04/01/2020,18:27,80.83,80.88,80.76,80.76, 1200
04/01/2020,18:28,80.63,80.73,80.58,80.73, 1400
04/01/2020,18:29,80.82,80.82,80.52,80.58, 5472
04/01/2020,18:30,80.53,80.58,80.53,80.58, 1500
04/01/2020,18:31,80.63,80.77,80.62,80.7, 1600
04/01/2020,18:32,80.71,80.81,80.7,80.81, 900
04/01/2020,18:33,80.77,80.93,80.77,80.92, 1610
04/01/2020,18:34,80.92,80.92,80.79,80.79, 1960
04/01/2020,18:35,80.8,80.8,80.63,80.64, 2101
04/01/2020,18:36,80.67,80.77,80.61,80.66, 1855
04/01/2020,18:37,80.63,80.64,80.53,80.53, 1839
04/01/2020,18:38,80.52,80.6,80.5,80.54, 1600
04/01/2020,18:39,80.56,80.6,80.49,80.49, 1800
04/01/2020,18:40,80.56,80.56,80.36,80.44, 1400
04/01/2020,18:41,80.35,80.45,80.32,80.43, 1350
04/01/2020,18:42,80.4,80.44,80.38,80.44, 2498
04/01/2020,18:43,80.39,80.39,80.27,80.3, 1082
04/01/2020,18:44,80.31,80.33,80.13,80.16, 6061
04/01/2020,18:45,80.18,80.31,80.15,80.31, 1700
04/01/2020,18:46,80.31,80.31,80.12,80.2, 9055
04/01/2020,18:47,80.3,80.33,80.26,80.27, 1477
04/01/2020,18:48,80.29,80.29,80.15,80.2, 3113
04/01/2020,18:49,80.22,80.33,80.17,80.22, 3340
04/01/2020,18:50,80.23,80.24,80.17,80.21, 856
04/01/2020,18:51,80.23,80.27,80.21,80.23, 1800
04/01/2020,18:52,80.18,80.28,80.18,80.24, 1136
04/01/2020,18:53,80.28,80.35,80.21,80.35, 2260
04/01/2020,18:54,80.29,80.29,80.19,80.21, 1099
04/01/2020,18:55,80.24,80.56,80.24,80.49, 2600
04/01/2020,18:56,80.59,80.6,80.53,80.54, 1000
04/01/2020,18:57,80.63,80.67,80.6,80.67, 1600
04/01/2020,18:58,80.64,80.7,80.61,80.67, 1400
04/01/2020,18:59,80.62,80.76,80.6,80.64, 3200
04/01/2020,18:59,80.64,80.68,80.6,80.68, 1965
04/01/2020,19:01,80.7,80.72,80.6,80.64, 2848
04/01/2020,19:02,80.62,80.67,80.56,80.62, 2643
04/01/2020,19:03,80.63,80.69,80.62,80.68, 2805
04/01/2020,19:04,80.69,80.95,80.69,80.95, 3037
04/01/2020,19:05,80.96,80.97,80.85,80.97, 1927
04/01/2020,19:06,80.91,80.96,80.86,80.88, 1671
04/01/2020,19:07,80.92,80.92,80.83,80.9, 1310
04/01/2020,19:08,80.89,80.96,80.75,80.89, 3900
04/01/2020,19:09,80.91,81.08,80.89,80.99, 1700
04/01/2020,19:10,80.98,81.06,80.97,81.04, 1620
04/01/2020,19:11,81,81.02,80.83,80.93, 2100
04/01/2020,19:12,81.03,81.09,80.93,81.04, 2500
04/01/2020,19:13,81.06,81.16,81.06,81.12, 2100
04/01/2020,19:14,81.18,81.2,81.01,81.01, 5293
04/01/2020,19:15,81.04,81.11,81.03,81.05, 1300
04/01/2020,19:16,81.05,81.05,80.82,80.82, 1100
04/01/2020,19:17,80.84,80.92,80.82,80.92, 2900
04/01/2020,19:18,81,81.06,81,81, 1000
04/01/2020,19:19,81.06,81.08,80.94,80.98, 3818
04/01/2020,19:20,81.03,81.07,80.85,80.86, 2700
04/01/2020,19:21,80.87,80.94,80.87,80.94, 500
04/01/2020,19:22,80.95,81.15,80.95,81.15, 1300
04/01/2020,19:23,81.12,81.32,81.12,81.19, 2954
04/01/2020,19:24,81.15,81.19,81.06,81.13, 2636
04/01/2020,19:25,81.1,81.17,81.06,81.14, 2329
04/01/2020,19:26,81.14,81.35,81.14,81.35, 800
04/01/2020,19:27,81.34,81.43,81.29,81.29, 1100
04/01/2020,19:28,81.24,81.24,81.06,81.1, 2100
04/01/2020,19:29,81.09,81.09,81.04,81.09, 906
04/01/2020,19:30,80.98,81.13,80.97,81.13, 1400
04/01/2020,19:31,81.13,81.13,80.94,80.94, 1110
04/01/2020,19:32,80.92,81.01,80.82,80.95, 1811
04/01/2020,19:33,81.02,81.05,80.96,81.01, 1840
04/01/2020,19:34,81.02,81.09,80.98,80.98, 1200
04/01/2020,19:35,80.97,81,80.87,80.9, 2301
04/01/2020,19:36,80.93,80.95,80.9,80.95, 1400
04/01/2020,19:37,80.95,80.96,80.87,80.94, 2048
04/01/2020,19:38,80.91,80.95,80.81,80.86, 2188
04/01/2020,19:39,80.85,80.93,80.76,80.76, 2600
04/01/2020,19:40,80.77,80.92,80.77,80.85, 2335
04/01/2020,19:41,80.85,80.87,80.6,80.65, 3621
04/01/2020,19:42,80.65,80.65,80.51,80.52, 1470
04/01/2020,19:43,80.52,80.52,80.39,80.41, 900
04/01/2020,19:44,80.43,80.52,80.43,80.5, 5507
04/01/2020,19:45,80.5,80.65,80.5,80.53, 2925
04/01/2020,19:46,80.56,80.57,80.36,80.42, 3300
04/01/2020,19:47,80.45,80.54,80.4,80.53, 3900
04/01/2020,19:48,80.51,80.63,80.51,80.56, 3402
04/01/2020,19:49,80.66,80.75,80.62,80.75, 901
04/01/2020,19:50,80.69,80.81,80.65,80.81, 2402
04/01/2020,19:51,80.81,80.82,80.69,80.73, 4853
04/01/2020,19:52,80.7,80.92,80.7,80.92, 1910
04/01/2020,19:53,80.95,81.05,80.81,81.04, 2303
04/01/2020,19:54,81.08,81.11,81.03,81.09, 1630
04/01/2020,19:55,81.04,81.12,81.01,81.06, 1682
04/01/2020,19:56,81.04,81.15,81.02,81.13, 1300
04/01/2020,19:57,81.18,81.23,81.08,81.08, 1324
04/01/2020,19:58,81.08,81.18,81.08,81.17, 1000
04/01/2020,19:59,81.17,81.18,81.02,81.09, 1500
04/01/2020,20:00,81.1,81.14,81.03,81.1, 1730
04/01/2020,20:01,81.04,81.14,81.04,81.14, 1693
04/01/2020,20:02,81.11,81.11,80.92,80.92, 3324
04/01/2020,20:03,80.96,81.03,80.92,80.92, 1300
04/01/2020,20:04,81.01,81.14,80.93,81.07, 1950
04/01/2020,20:05,81.13,81.33,81.13,81.16, 1926
04/01/2020,20:06,81.22,81.27,81.15,81.15, 1917
04/01/2020,20:07,81.19,81.24,81.13,81.18, 2929
04/01/2020,20:08,81.22,81.24,81.17,81.18, 1200
04/01/2020,20:09,81.24,81.25,81.19,81.25, 1215
04/01/2020,20:10,81.3,81.34,81.25,81.27, 1600
04/01/2020,20:11,81.2,81.21,81.08,81.18, 2000
04/01/2020,20:12,81.25,81.25,81.1,81.11, 1148
04/01/2020,20:13,81.14,81.16,81.07,81.11, 1922
04/01/2020,20:14,81.14,81.21,81.11,81.21, 900
04/01/2020,20:15,81.2,81.2,81.05,81.13, 1601
04/01/2020,20:16,81.15,81.16,81.07,81.09, 1400
04/01/2020,20:17,81.09,81.14,81.04,81.05, 3636
04/01/2020,20:18,81.03,81.07,80.98,81.01, 1731
04/01/2020,20:19,81.03,81.05,80.91,81.04, 2206
04/01/2020,20:20,81.09,81.15,81.05,81.12, 2800
04/01/2020,20:21,81.06,81.13,81.01,81.12, 2300
04/01/2020,20:22,81.13,81.13,81.06,81.09, 1921
04/01/2020,20:23,81.13,81.19,81.11,81.18, 1800
04/01/2020,20:24,81.16,81.18,81.11,81.17, 5586
04/01/2020,20:25,81.19,81.27,81.14,81.14, 4486
04/01/2020,20:26,81.11,81.22,81.04,81.22, 3000
04/01/2020,20:27,81.18,81.28,81.15,81.28, 1953
04/01/2020,20:28,81.34,81.38,81.27,81.27, 3100
04/01/2020,20:29,81.19,81.34,81.19,81.31, 1200
04/01/2020,20:30,81.36,81.36,81.29,81.33, 1678
04/01/2020,20:31,81.32,81.36,81.11,81.2, 2058
04/01/2020,20:32,81.1,81.16,81.09,81.12, 5225
04/01/2020,20:33,81.17,81.17,81.14,81.15, 1300
04/01/2020,20:34,81.11,81.11,80.98,80.99, 3427
04/01/2020,20:35,80.97,81.03,80.96,81.03, 3028
04/01/2020,20:36,81.02,81.06,80.96,81.06, 3928
04/01/2020,20:37,81.01,81.01,80.81,80.9, 2855
04/01/2020,20:38,80.91,80.95,80.78,80.86, 3253
04/01/2020,20:39,80.81,80.86,80.77,80.82, 1264
04/01/2020,20:40,80.84,80.98,80.82,80.92, 4444
04/01/2020,20:41,80.88,80.88,80.67,80.67, 2264
04/01/2020,20:42,80.65,80.78,80.65,80.69, 1600
04/01/2020,20:43,80.75,80.84,80.72,80.78, 3540
04/01/2020,20:44,80.78,80.78,80.65,80.71, 3281
04/01/2020,20:45,80.73,80.79,80.7,80.74, 2406
04/01/2020,20:46,80.76,80.82,80.75,80.82, 3165
04/01/2020,20:47,80.81,80.85,80.69,80.69, 1787
04/01/2020,20:48,80.66,80.84,80.65,80.81, 8239
04/01/2020,20:49,80.86,80.96,80.86,80.88, 3224
04/01/2020,20:50,80.87,80.96,80.85,80.93, 3800
04/01/2020,20:51,80.95,80.95,80.8,80.86, 2734
04/01/2020,20:52,80.85,80.86,80.77,80.8, 2341
04/01/2020,20:53,80.86,80.87,80.79,80.83, 1731
04/01/2020,20:54,80.83,80.84,80.61,80.62, 3002
04/01/2020,20:54,80.67,80.73,80.66,80.66, 2440
04/01/2020,20:56,80.62,80.68,80.58,80.61, 1706
04/01/2020,20:57,80.59,80.66,80.57,80.57, 1500
04/01/2020,20:58,80.58,80.64,80.53,80.64, 2113
04/01/2020,20:59,80.63,80.64,80.56,80.61, 1909
04/01/2020,21:00,80.64,80.68,80.53,80.53, 2100
04/01/2020,21:01,80.52,80.59,80.51,80.51, 2068
04/01/2020,21:02,80.56,80.69,80.56,80.67, 2500
04/01/2020,21:03,80.71,80.75,80.71,80.71, 2100
04/01/2020,21:04,80.7,80.71,80.57,80.64, 2435
04/01/2020,21:05,80.66,80.71,80.64,80.71, 1943
04/01/2020,21:06,80.7,80.7,80.56,80.59, 2390
04/01/2020,21:07,80.61,80.67,80.61,80.63, 1349
04/01/2020,21:08,80.6,80.64,80.58,80.63, 1816
04/01/2020,21:09,80.66,80.66,80.57,80.62, 1181
04/01/2020,21:10,80.6,80.61,80.56,80.56, 4121
04/01/2020,21:11,80.57,80.61,80.55,80.61, 1707
04/01/2020,21:12,80.62,80.66,80.59,80.65, 2018
04/01/2020,21:13,80.66,80.85,80.66,80.85, 3104
04/01/2020,21:14,80.83,80.95,80.83,80.93, 2179
04/01/2020,21:15,80.93,80.96,80.9,80.91, 2239
04/01/2020,21:16,80.96,80.99,80.91,80.92, 2932
04/01/2020,21:17,80.9,80.96,80.88,80.89, 1713
04/01/2020,21:18,80.9,81.05,80.9,81.05, 2642
04/01/2020,21:19,81.08,81.11,81.03,81.07, 4569
04/01/2020,21:20,81.07,81.24,81.07,81.18, 2213
04/01/2020,21:21,81.17,81.32,81.17,81.2, 3274
04/01/2020,21:22,81.16,81.21,81.06,81.12, 8157
04/01/2020,21:23,81.11,81.12,81.04,81.07, 1206
04/01/2020,21:24,81.07,81.1,81.01,81.08, 2905
04/01/2020,21:25,81.05,81.07,80.94,80.95, 2000
04/01/2020,21:26,80.92,80.97,80.9,80.93, 2100
04/01/2020,21:27,80.89,80.97,80.89,80.93, 1839
04/01/2020,21:28,80.89,80.91,80.82,80.91, 2725
04/01/2020,21:29,80.91,80.91,80.68,80.7, 4942
04/01/2020,21:30,80.71,80.71,80.6,80.71, 3483
04/01/2020,21:31,80.65,80.77,80.65,80.76, 6387
04/01/2020,21:32,80.76,80.96,80.76,80.93, 4202
04/01/2020,21:33,80.94,81.06,80.92,80.93, 5507
04/01/2020,21:34,80.97,81.05,80.93,80.97, 3567
04/01/2020,21:35,80.93,81.01,80.85,80.89, 6060
04/01/2020,21:36,80.89,80.96,80.84,80.84, 6363
04/01/2020,21:37,80.82,80.88,80.81,80.87, 2624
04/01/2020,21:38,80.88,80.91,80.83,80.87, 6360
04/01/2020,21:39,80.86,80.87,80.62,80.64, 5403
04/01/2020,21:40,80.64,80.72,80.56,80.72, 6160
04/01/2020,21:41,80.65,80.66,80.51,80.6, 3900
04/01/2020,21:42,80.67,80.73,80.62,80.67, 3105
04/01/2020,21:43,80.62,80.67,80.47,80.47, 6636
04/01/2020,21:44,80.52,80.64,80.48,80.61, 6722
04/01/2020,21:45,80.6,80.65,80.5,80.58, 5183
04/01/2020,21:46,80.59,80.86,80.56,80.86, 7107
04/01/2020,21:46,80.85,81.18,80.76,81.09, 3900
04/01/2020,21:47,81.05,81.05,80.73,80.89, 4310
04/01/2020,21:48,80.87,81.19,80.85,81.11, 3324
04/01/2020,21:49,81.17,81.31,81.1,81.29, 6845
04/01/2020,21:50,81.32,81.6,81.25,81.57, 3429
04/01/2020,21:51,81.52,81.52,80.83,80.83, 6133
04/01/2020,21:51,80.9,80.93,79.72,80.35, 36183
04/01/2020,21:52,80.31,80.59,80.03,80.39, 9271
04/01/2020,21:53,80.35,80.56,80.3,80.4, 6925
04/01/2020,21:53,80.35,80.75,80.2,80.58, 7400
04/01/2020,21:54,80.52,80.61,80.21,80.36, 6253
04/01/2020,21:55,80.45,80.62,80.43,80.43, 6600
04/01/2020,21:55,80.46,80.61,80.43,80.44, 5500
04/01/2020,21:56,80.51,80.57,80.27,80.27, 13300
04/01/2020,21:56,80.3,80.52,80.28,80.49, 10766
04/01/2020,21:57,80.54,80.64,80.26,80.26, 9955
04/01/2020,21:57,80.28,80.49,80.24,80.47, 15118
04/01/2020,21:58,80.28,80.33,80.14,80.14, 21520
04/01/2020,21:59,80.17,80.32,79.97,80.22, 17512
04/01/2020,21:59,80.27,80.28,79.91,79.93, 16832
04/01/2020,22:00,79.93,80.11,79.7,79.95, 25917
04/01/2020,22:00,79.96,80.09,79.86,79.94, 37430
04/01/2020,22:03,79.96,79.96,79.76,79.89, 364236
04/02/2020,15:31,79.44,79.44,79.44,79.44, 900
04/02/2020,15:31,79.54,79.54,79.54,79.54, 155
04/02/2020,15:32,79.53,79.53,79.08,79.08, 2895
04/02/2020,15:32,79.26,79.26,79.25,79.25, 1100
04/02/2020,15:33,79.25,79.25,79.04,79.24, 2600
04/02/2020,15:33,79.25,79.33,78.63,78.63, 8025
04/02/2020,15:34,78.97,78.99,78.63,78.63, 800
04/02/2020,15:35,78.74,78.9,78.01,78.9, 14742
04/02/2020,15:35,78.7,79.54,78.61,78.61, 6312
04/02/2020,15:36,79.09,79.24,79.02,79.24, 2055
04/02/2020,15:36,78.86,79,78.64,78.83, 4935
04/02/2020,15:37,78.95,79.02,78.59,78.59, 5916
04/02/2020,15:38,78.7,78.7,78.34,78.7, 7202
04/02/2020,15:39,78.68,79.17,78.57,78.89, 2456
04/02/2020,15:40,79.16,79.37,79.03,79.03, 3002
04/02/2020,15:40,78.96,79.17,78.84,78.84, 2100
04/02/2020,15:41,79.03,79.38,78.96,79.38, 3789
04/02/2020,15:41,79.34,79.42,79.05,79.32, 7986
04/02/2020,15:42,79.16,79.59,79.16,79.59, 4023
04/02/2020,15:43,79.38,79.44,79.22,79.3, 1404
04/02/2020,15:43,79.24,79.25,79.17,79.17, 700
04/02/2020,15:44,79.16,79.59,79.05,79.59, 6472
04/02/2020,15:45,79.61,79.64,79.42,79.64, 2278
04/02/2020,15:45,79.61,79.81,79.34,79.58, 8720
04/02/2020,15:46,79.56,79.63,79.52,79.52, 656
04/02/2020,15:47,79.45,79.61,79.29,79.61, 4148
04/02/2020,15:48,79.55,79.57,79.19,79.34, 8724
04/02/2020,15:48,79.4,79.55,79.3,79.3, 898
04/02/2020,15:49,79.25,79.25,79,79, 1182
04/02/2020,15:50,79.15,79.33,79.13,79.21, 7914
04/02/2020,15:51,79.09,79.11,78.73,78.73, 3200
04/02/2020,15:52,78.82,78.88,78.82,78.82, 500
04/02/2020,15:53,78.66,78.66,78.56,78.57, 1576
04/02/2020,15:54,78.51,78.59,78.48,78.49, 1681
04/02/2020,15:55,78.59,78.59,78.31,78.31, 965
04/02/2020,15:55,78.22,78.33,78.05,78.05, 3221
04/02/2020,15:56,78.09,78.56,78.09,78.56, 3351
04/02/2020,15:58,78.56,78.56,78.21,78.42, 1500
04/02/2020,15:59,78.53,78.64,78.51,78.64, 3056
04/02/2020,15:59,78.68,78.85,78.68,78.85, 2315
04/02/2020,16:01,78.94,79.97,78.93,79.97, 10732
04/02/2020,16:01,79.92,79.93,79.43,79.63, 13701
04/02/2020,16:02,79.44,79.46,79.38,79.38, 600
04/02/2020,16:03,79.25,79.46,79.25,79.46, 2532
04/02/2020,16:04,79.44,79.55,79.44,79.55, 1015
04/02/2020,16:05,79.54,79.67,79.37,79.67, 4101
04/02/2020,16:06,79.72,79.72,79.29,79.29, 900
04/02/2020,16:07,79.37,79.41,79.32,79.32, 1492
04/02/2020,16:07,79.36,79.5,79.2,79.3, 4127
04/02/2020,16:08,79.24,79.96,79.24,79.96, 3447
04/02/2020,16:09,79.96,80.15,79.95,80.01, 4020
04/02/2020,16:10,80.01,80.19,79.91,79.91, 2743
04/02/2020,16:11,79.98,80.24,79.93,79.93, 2416
04/02/2020,16:12,79.98,80.05,79.91,79.92, 1400
04/02/2020,16:12,79.87,79.95,79.84,79.95, 400
04/02/2020,16:13,79.94,80.13,79.94,80.13, 2713
04/02/2020,16:14,79.99,79.99,79.84,79.84, 2099
04/02/2020,16:14,79.93,80.32,79.92,80.32, 6106
04/02/2020,16:15,80.28,80.41,80.12,80.12, 4073
04/02/2020,16:16,80.12,80.12,80.02,80.09, 1102
04/02/2020,16:17,79.93,79.96,79.87,79.88, 2727
04/02/2020,16:18,79.9,80.25,79.9,80.25, 7211
04/02/2020,16:19,80.25,80.46,80.25,80.45, 6235
04/02/2020,16:19,80.5,80.66,80.46,80.65, 2300
04/02/2020,16:20,80.54,80.54,80.14,80.17, 4040
04/02/2020,16:20,80.19,80.23,80.17,80.22, 966
04/02/2020,16:21,80.36,80.38,80.36,80.36, 1092
04/02/2020,16:21,80.45,80.97,80.42,80.83, 3637
04/02/2020,16:22,80.72,80.81,80.48,80.48, 2401
04/02/2020,16:23,80.5,80.67,80.42,80.59, 1572
04/02/2020,16:23,80.68,80.68,80.36,80.36, 1342
04/02/2020,16:23,80.45,80.45,80.27,80.36, 700
04/02/2020,16:24,80.36,80.52,80.24,80.5, 2223
04/02/2020,16:25,80.39,80.4,80.22,80.22, 2135
04/02/2020,16:26,80.23,80.87,80.22,80.84, 8225
04/02/2020,16:26,80.77,80.91,80.73,80.8, 3923
04/02/2020,16:26,80.75,80.75,80.67,80.71, 593
04/02/2020,16:27,80.67,80.72,80.67,80.69, 2349
04/02/2020,16:28,80.67,80.67,80.35,80.35, 1100
04/02/2020,16:28,80.39,80.39,80.2,80.32, 3667
04/02/2020,16:29,80.32,80.76,80.32,80.67, 5587
04/02/2020,16:30,80.67,80.87,80.63,80.87, 4743
04/02/2020,16:30,81.02,81.16,81.02,81.1, 2400
04/02/2020,16:31,81.15,81.47,81.13,81.15, 7654
04/02/2020,16:31,81.19,81.5,81.07,81.5, 15881
04/02/2020,16:32,81.56,81.89,81.54,81.61, 9719
04/02/2020,16:32,81.53,81.54,81.53,81.54, 200
04/02/2020,16:33,81.54,81.91,81.52,81.77, 24862
04/02/2020,16:34,81.85,82.32,81.74,82.21, 17698
04/02/2020,16:34,82.24,82.24,81.8,81.8, 3568
04/02/2020,16:35,81.62,81.69,81.39,81.39, 902
04/02/2020,16:36,81.44,81.66,81.43,81.63, 3790
04/02/2020,16:37,82.01,82.01,81.68,81.68, 1000
04/02/2020,16:38,81.67,82.19,81.61,82.05, 7141
04/02/2020,16:39,82.06,82.06,81.73,81.94, 4494
04/02/2020,16:39,81.89,81.89,81.78,81.83, 700
04/02/2020,16:40,81.67,82.03,81.67,82.03, 2964
04/02/2020,16:41,81.94,81.94,81.88,81.88, 306
04/02/2020,16:41,81.75,82.08,81.75,81.83, 5872
04/02/2020,16:42,81.79,81.84,81.71,81.76, 2305
04/02/2020,16:42,81.86,81.86,81.7,81.7, 600
04/02/2020,16:43,81.77,81.89,81.66,81.68, 2700
04/02/2020,16:43,81.7,81.7,81.46,81.46, 1500
04/02/2020,16:44,81.33,81.33,81.19,81.19, 300
04/02/2020,16:44,81.25,81.27,81.08,81.08, 1801
04/02/2020,16:45,81.18,81.18,81.12,81.12, 1251
04/02/2020,16:46,81.16,81.48,81.16,81.48, 2270
04/02/2020,16:47,81.41,81.66,81.35,81.63, 5887
04/02/2020,16:47,81.58,81.59,81.36,81.36, 2656
04/02/2020,16:48,81.29,81.52,81.27,81.48, 5021
04/02/2020,16:48,81.63,81.71,81.62,81.63, 3048
04/02/2020,16:49,81.53,81.53,81.35,81.39, 1753
04/02/2020,16:50,81.25,81.76,81.25,81.72, 13918
04/02/2020,16:51,81.75,81.88,81.36,81.37, 16175
04/02/2020,16:52,81.45,81.63,81.34,81.49, 4139
04/02/2020,16:54,81.33,81.75,81.33,81.55, 12035
04/02/2020,16:54,81.5,81.58,81.46,81.49, 4245
04/02/2020,16:56,81.52,81.68,81.47,81.5, 4328
04/02/2020,17:02,81.5,81.66,81.49,81.54, 4521
04/02/2020,17:05,81.51,81.63,81.45,81.56, 6721
04/02/2020,17:08,81.62,81.7,81.44,81.46, 8113
04/02/2020,17:09,81.56,81.58,81.45,81.58, 4898
04/02/2020,17:10,81.59,81.66,81.56,81.59, 11119
04/02/2020,17:12,81.61,81.61,81.39,81.51, 7960
04/02/2020,17:13,81.5,81.56,81.39,81.5, 7328
04/02/2020,17:14,81.52,81.78,81.36,81.41, 9533
04/02/2020,17:15,81.39,81.46,81.29,81.29, 3122
04/02/2020,17:16,81.32,81.34,81.16,81.27, 2962
04/02/2020,17:17,81.28,81.6,81.28,81.6, 3981
04/02/2020,17:18,81.54,82.08,81.51,81.99, 9900
04/02/2020,17:19,81.98,82.04,81.93,82, 4946
04/02/2020,17:20,82.01,82.01,81.65,81.71, 3928
04/02/2020,17:21,81.61,81.62,81.27,81.34, 4018
04/02/2020,17:22,81.39,81.54,81.35,81.44, 5129
04/02/2020,17:23,81.46,81.46,81.28,81.36, 3549
04/02/2020,17:24,81.35,81.44,81.3,81.4, 6573
04/02/2020,17:25,81.4,81.4,81.24,81.24, 3454
04/02/2020,17:26,81.06,81.12,80.85,80.85, 2204
04/02/2020,17:28,80.69,80.74,80.61,80.74, 11566
04/02/2020,17:29,80.68,80.81,80.6,80.81, 8343
04/02/2020,17:30,80.71,80.99,80.71,80.99, 6920
04/02/2020,17:31,81.05,81.09,81.04,81.07, 951
04/02/2020,17:31,81.07,81.09,80.98,80.99, 5314
04/02/2020,17:33,80.98,81.13,80.98,81.08, 5347
04/02/2020,17:34,81.09,81.33,81.08,81.24, 9444
04/02/2020,17:36,81.24,81.31,81.17,81.27, 8974
04/02/2020,17:37,81.26,81.41,81.24,81.31, 13898
04/02/2020,17:39,81.31,81.41,81.13,81.37, 27244
04/02/2020,17:40,81.37,81.5,81.26,81.48, 53545
04/02/2020,17:42,81.44,81.48,81.36,81.48, 21979
04/02/2020,17:44,81.55,81.67,81.37,81.39, 5440
04/02/2020,17:46,81.4,81.47,81.36,81.4, 22041
04/02/2020,17:47,81.4,81.77,81.36,81.72, 8859
04/02/2020,17:49,81.73,81.85,81.51,81.51, 7934
04/02/2020,17:50,81.54,81.54,81.38,81.41, 4825
04/02/2020,17:53,81.38,81.64,81.36,81.62, 15656
04/02/2020,17:55,81.61,81.66,81.32,81.39, 12066
04/02/2020,17:57,81.38,81.47,81.33,81.47, 5697
04/02/2020,17:58,81.51,81.68,81.45,81.45, 7648
04/02/2020,18:00,81.4,81.49,81.22,81.22, 10081
04/02/2020,18:03,81.28,81.58,81.24,81.54, 7309
04/02/2020,18:04,81.49,81.49,81.3,81.3, 4319
04/02/2020,18:06,81.28,81.54,81.25,81.54, 11790
04/02/2020,18:08,81.58,81.69,81.46,81.46, 5939
04/02/2020,18:10,81.45,81.58,81.38,81.38, 3003
04/02/2020,18:12,81.38,81.6,81.3,81.57, 8348
04/02/2020,18:13,81.59,81.67,81.53,81.6, 4662
04/02/2020,18:15,81.63,81.69,81.57,81.58, 3049
04/02/2020,18:17,81.52,81.56,81.28,81.42, 17703
04/02/2020,18:19,81.47,81.61,81.4,81.61, 7046
04/02/2020,18:21,81.62,81.62,81.44,81.45, 5086
04/02/2020,18:23,81.51,81.52,81.37,81.49, 3771
04/02/2020,18:24,81.44,81.52,81.38,81.39, 7740
04/02/2020,18:26,81.4,81.4,81.29,81.38, 4354
04/02/2020,18:28,81.4,81.42,81.35,81.41, 7388
04/02/2020,18:29,81.38,81.42,81.36,81.39, 3270
04/02/2020,18:30,81.37,81.46,81.33,81.42, 3719
04/02/2020,18:31,81.41,81.41,81.29,81.31, 6145
04/02/2020,18:32,81.34,81.42,81.33,81.4, 3927
04/02/2020,18:33,81.34,81.36,81.26,81.26, 6872
04/02/2020,18:34,81.21,81.26,81.13,81.18, 3979
04/02/2020,18:35,81.18,81.41,81.18,81.41, 17353
04/02/2020,18:36,81.43,81.48,81.37,81.44, 4888
04/02/2020,18:37,81.41,81.48,81.41,81.43, 1819
04/02/2020,18:38,81.42,81.44,81.38,81.44, 4984
04/02/2020,18:39,81.41,81.49,81.36,81.41, 7011
04/02/2020,18:40,81.38,81.46,81.34,81.4, 15041
04/02/2020,18:41,81.42,81.44,81.37,81.4, 4600
04/02/2020,18:42,81.4,81.44,81.39,81.4, 7775
04/02/2020,18:43,81.4,81.46,81.36,81.46, 24948
04/02/2020,18:44,81.47,81.6,81.42,81.5, 8377
04/02/2020,18:45,81.48,81.51,81.46,81.46, 1429
04/02/2020,18:46,81.47,81.48,81.23,81.31, 57756
04/02/2020,18:47,81.31,81.48,81.31,81.4, 16374
04/02/2020,18:48,81.37,81.4,81.28,81.28, 13272
04/02/2020,18:49,81.27,81.32,81.24,81.24, 2714
04/02/2020,18:50,81.21,81.22,81.07,81.07, 4009
04/02/2020,18:51,81.11,81.2,81.1,81.14, 19409
04/02/2020,18:52,81.12,81.17,81.12,81.13, 3289
04/02/2020,18:53,81.1,81.18,81.06,81.18, 3552
04/02/2020,18:54,81.16,81.28,81.16,81.2, 54203
04/02/2020,18:55,81.2,81.23,81.11,81.12, 3602
04/02/2020,18:56,81.1,81.1,81,81.01, 53920
04/02/2020,18:57,80.95,80.95,80.7,80.76, 2074
04/02/2020,18:58,80.78,80.9,80.75,80.84, 13355
04/02/2020,18:59,80.84,81,80.84,80.96, 4761
04/02/2020,19:00,80.95,80.99,80.94,80.95, 4335
04/02/2020,19:01,80.97,80.98,80.91,80.91, 5765
04/02/2020,19:02,80.93,81.06,80.87,81.06, 4962
04/02/2020,19:03,81.07,81.14,81.07,81.09, 1000
04/02/2020,19:04,81.09,81.11,81.03,81.04, 2095
04/02/2020,19:05,81,81.04,80.99,81.04, 5054
04/02/2020,19:06,81.01,81.01,80.83,80.88, 3447
04/02/2020,19:07,80.86,80.86,80.77,80.81, 4787
04/02/2020,19:08,80.81,80.87,80.77,80.78, 6411
04/02/2020,19:09,80.75,80.79,80.72,80.77, 2894
04/02/2020,19:10,80.75,80.83,80.75,80.77, 4604
04/02/2020,19:11,80.75,80.76,80.54,80.54, 3060
04/02/2020,19:12,80.54,80.58,80.5,80.54, 8114
04/02/2020,19:13,80.5,80.5,80.24,80.27, 1902
04/02/2020,19:14,80.23,80.76,80.17,80.71, 29295
04/02/2020,19:15,80.71,80.84,80.52,80.58, 11730
04/02/2020,19:16,80.57,80.58,80.48,80.55, 3850
04/02/2020,19:17,80.56,80.57,80.41,80.46, 5761
04/02/2020,19:18,80.45,80.46,80.33,80.37, 4780
04/02/2020,19:19,80.36,80.37,80.27,80.37, 2754
04/02/2020,19:20,80.35,80.39,80.31,80.39, 3674
04/02/2020,19:21,80.36,80.36,80.27,80.31, 2935
04/02/2020,19:22,80.31,80.37,80.28,80.34, 5337
04/02/2020,19:23,80.3,80.35,80.27,80.34, 5437
04/02/2020,19:24,80.36,80.36,80.28,80.34, 2443
04/02/2020,19:25,80.32,80.33,80.27,80.33, 1982
04/02/2020,19:26,80.29,80.33,80.23,80.23, 6049
04/02/2020,19:27,80.23,80.26,80.13,80.25, 8344
04/02/2020,19:28,80.23,80.23,80.09,80.14, 6704
04/02/2020,19:29,80.14,80.21,80.08,80.2, 4640
04/02/2020,19:30,80.2,80.48,80.19,80.3, 28675
04/02/2020,19:31,80.3,80.3,80.12,80.16, 1501
04/02/2020,19:32,80.11,80.19,80.06,80.19, 6835
04/02/2020,19:33,80.14,80.2,79.99,80.04, 7540
04/02/2020,19:34,80.02,80.1,79.95,79.95, 6019
04/02/2020,19:35,79.98,80.09,79.98,80.05, 5384
04/02/2020,19:36,80.05,80.16,80.01,80.16, 9650
04/02/2020,19:37,80.14,80.22,80.06,80.06, 5631
04/02/2020,19:38,80.09,80.16,80.02,80.13, 9008
04/02/2020,19:39,80.09,80.15,79.93,79.93, 6887
04/02/2020,19:40,79.92,79.95,79.75,79.8, 3354
04/02/2020,19:41,79.81,79.94,79.81,79.88, 4275
04/02/2020,19:42,79.9,79.94,79.86,79.94, 5044
04/02/2020,19:43,79.88,79.88,79.75,79.77, 1400
04/02/2020,19:44,79.76,79.76,79.58,79.58, 1801
04/02/2020,19:45,79.55,79.74,79.48,79.74, 12233
04/02/2020,19:46,79.78,79.78,79.61,79.61, 1200
04/02/2020,19:47,79.62,79.62,79.38,79.48, 6277
04/02/2020,19:48,79.48,79.5,79.28,79.28, 4280
04/02/2020,19:49,79.35,79.64,79.33,79.63, 7450
04/02/2020,19:50,79.53,79.7,79.5,79.7, 2370
04/02/2020,19:51,79.65,79.65,79.37,79.37, 1900
04/02/2020,19:52,79.43,79.63,79.43,79.61, 4513
04/02/2020,19:53,79.57,79.61,79.54,79.56, 1247
04/02/2020,19:54,79.56,79.65,79.51,79.65, 4147
04/02/2020,19:55,79.62,79.62,79.52,79.52, 1401
04/02/2020,19:56,79.48,79.48,79.33,79.42, 3700
04/02/2020,19:57,79.38,79.39,79.22,79.22, 2202
04/02/2020,19:58,79.15,79.26,79.15,79.24, 3712
04/02/2020,19:59,79.19,79.26,78.96,78.96, 3119
04/02/2020,20:00,79.02,79.03,78.95,79.03, 2698
04/02/2020,20:01,79.02,79.09,78.98,78.98, 2702
04/02/2020,20:02,79,79.07,78.97,79.05, 3034
04/02/2020,20:03,79.03,79.09,78.83,78.84, 4047
04/02/2020,20:04,78.86,78.87,78.71,78.76, 3495
04/02/2020,20:05,78.8,78.98,78.79,78.97, 4300
04/02/2020,20:06,79.01,79.14,78.95,79.14, 8143
04/02/2020,20:07,79.14,79.18,79.02,79.05, 3619
04/02/2020,20:08,79.01,79.12,79,79.1, 2284
04/02/2020,20:09,79.1,79.18,79.09,79.16, 4319
04/02/2020,20:10,79.16,79.26,79.16,79.26, 4203
04/02/2020,20:11,79.25,79.3,79.22,79.3, 7662
04/02/2020,20:12,79.33,79.37,79.25,79.27, 5006
04/02/2020,20:13,79.26,79.34,79.2,79.32, 8001
04/02/2020,20:14,79.33,79.42,79.28,79.35, 4194
04/02/2020,20:15,79.37,79.59,79.37,79.57, 3656
04/02/2020,20:16,79.59,79.61,79.56,79.59, 1721
04/02/2020,20:17,79.56,79.64,79.47,79.54, 10747
04/02/2020,20:18,79.52,79.54,79.42,79.43, 2520
04/02/2020,20:19,79.41,79.43,79.3,79.35, 3965
04/02/2020,20:20,79.32,79.33,79.23,79.24, 2991
04/02/2020,20:21,79.14,79.14,78.97,79, 1938
04/02/2020,20:22,78.98,79.2,78.96,79.14, 7880
04/02/2020,20:23,79.16,79.44,79.16,79.43, 8227
04/02/2020,20:24,79.44,79.73,79.44,79.71, 8629
04/02/2020,20:25,79.7,79.72,79.51,79.55, 4519
04/02/2020,20:26,79.49,79.49,79.33,79.37, 3289
04/02/2020,20:27,79.39,79.52,79.37,79.49, 4597
04/02/2020,20:28,79.49,79.61,79.49,79.53, 3189
04/02/2020,20:29,79.54,79.55,79.48,79.51, 1395
04/02/2020,20:30,79.53,79.66,79.51,79.62, 5352
04/02/2020,20:31,79.61,79.61,79.5,79.52, 2200
04/02/2020,20:32,79.51,79.57,79.42,79.48, 3900
04/02/2020,20:33,79.46,79.46,79.3,79.35, 4114
04/02/2020,20:34,79.35,79.48,79.35,79.48, 6794
04/02/2020,20:35,79.52,79.8,79.52,79.7, 8531
04/02/2020,20:36,79.59,79.63,79.41,79.63, 7006
04/02/2020,20:37,79.62,79.75,79.57,79.72, 3651
04/02/2020,20:38,79.74,79.74,79.62,79.7, 2129
04/02/2020,20:39,79.67,79.77,79.65,79.76, 4927
04/02/2020,20:40,79.81,79.88,79.73,79.73, 2419
04/02/2020,20:41,79.7,79.7,79.6,79.6, 1211
04/02/2020,20:42,79.62,79.62,79.47,79.5, 3616
04/02/2020,20:43,79.49,79.54,79.41,79.42, 7341
04/02/2020,20:44,79.41,79.56,79.41,79.49, 11224
04/02/2020,20:45,79.49,79.63,79.48,79.58, 6545
04/02/2020,20:46,79.57,79.57,79.43,79.49, 5966
04/02/2020,20:47,79.47,79.53,79.42,79.51, 5001
04/02/2020,20:48,79.49,79.56,79.49,79.49, 3203
04/02/2020,20:49,79.51,79.62,79.5,79.62, 3326
04/02/2020,20:50,79.61,79.61,79.45,79.47, 5155
04/02/2020,20:51,79.46,79.52,79.46,79.5, 5872
04/02/2020,20:52,79.47,79.5,79.42,79.49, 3902
04/02/2020,20:53,79.45,79.64,79.45,79.62, 7287
04/02/2020,20:54,79.61,79.67,79.58,79.64, 4367
04/02/2020,20:55,79.67,80.02,79.67,79.92, 4168
04/02/2020,20:56,79.89,79.91,79.74,79.77, 3500
04/02/2020,20:57,79.73,79.89,79.73,79.89, 6773
04/02/2020,20:58,79.84,79.92,79.75,79.75, 3586
04/02/2020,20:59,79.66,79.75,79.66,79.75, 3483
04/02/2020,21:00,79.77,79.79,79.66,79.74, 4044
04/02/2020,21:01,79.75,79.98,79.73,79.95, 4119
04/02/2020,21:02,79.95,79.95,79.69,79.69, 2585
04/02/2020,21:03,79.63,79.65,79.52,79.52, 1300
04/02/2020,21:04,79.53,79.6,79.49,79.5, 6238
04/02/2020,21:05,79.5,79.59,79.5,79.57, 4216
04/02/2020,21:06,79.59,79.66,79.48,79.48, 4087
04/02/2020,21:07,79.48,79.59,79.48,79.54, 1698
04/02/2020,21:08,79.59,79.59,79.49,79.5, 2182
04/02/2020,21:09,79.51,79.62,79.5,79.6, 4771
04/02/2020,21:10,79.65,79.79,79.65,79.79, 1508
04/02/2020,21:11,79.73,79.78,79.69,79.69, 4169
04/02/2020,21:12,79.68,79.71,79.66,79.68, 1402
04/02/2020,21:13,79.69,79.78,79.5,79.52, 6199
04/02/2020,21:14,79.55,79.63,79.5,79.6, 5347
04/02/2020,21:15,79.64,79.9,79.63,79.89, 9510
04/02/2020,21:16,79.94,80.07,79.94,80.07, 6671
04/02/2020,21:17,80.07,80.33,80.06,80.32, 8987
04/02/2020,21:18,80.35,80.55,80.31,80.48, 8724
04/02/2020,21:19,80.51,80.64,80.3,80.35, 7489
04/02/2020,21:20,80.33,80.33,80.2,80.31, 3836
04/02/2020,21:21,80.29,80.48,80.29,80.32, 3191
04/02/2020,21:22,80.33,80.35,80.17,80.17, 3094
04/02/2020,21:23,80.18,80.23,80.13,80.21, 3533
04/02/2020,21:24,80.2,80.23,80.12,80.12, 2211
04/02/2020,21:25,80.11,80.17,80.11,80.16, 4127
04/02/2020,21:26,80.11,80.11,79.94,80.05, 6213
04/02/2020,21:27,80,80.05,79.97,79.99, 2235
04/02/2020,21:28,80,80.12,79.99,80.05, 7253
04/02/2020,21:29,80.05,80.19,80.05,80.16, 5183
04/02/2020,21:30,80.12,80.15,80.03,80.11, 5716
04/02/2020,21:31,80.11,80.35,80.1,80.34, 7494
04/02/2020,21:32,80.27,80.3,80.12,80.12, 7116
04/02/2020,21:33,80.07,80.25,80,80.2, 10753
04/02/2020,21:34,80.23,80.29,80.12,80.21, 8839
04/02/2020,21:35,80.26,80.28,80.2,80.26, 4325
04/02/2020,21:36,80.25,80.29,80.2,80.22, 9999
04/02/2020,21:37,80.24,80.29,80.22,80.29, 6484
04/02/2020,21:38,80.32,80.32,80.05,80.23, 24986
04/02/2020,21:39,80.22,80.24,80.14,80.17, 7973
04/02/2020,21:40,80.18,80.29,80.17,80.24, 18432
04/02/2020,21:41,80.24,80.28,80.19,80.2, 6183
04/02/2020,21:42,80.23,80.28,80.21,80.26, 6694
04/02/2020,21:43,80.25,80.39,80.21,80.39, 7145
04/02/2020,21:44,80.37,80.41,80.15,80.41, 12296
04/02/2020,21:45,80.35,80.59,80.34,80.59, 6679
04/02/2020,21:46,80.54,80.61,80.5,80.59, 5288
04/02/2020,21:47,80.62,80.66,80.54,80.6, 7018
04/02/2020,21:48,80.6,80.6,80.23,80.35, 11476
04/02/2020,21:49,80.38,80.38,80.25,80.31, 9127
04/02/2020,21:50,80.31,80.34,79.99,80.2, 17207
04/02/2020,21:51,80.17,80.31,80,80.18, 18370
04/02/2020,21:51,80.18,80.6,79.89,80.6, 25617
04/02/2020,21:51,80.6,80.6,80.27,80.36, 15212
04/02/2020,21:52,80.36,80.54,80.24,80.43, 12756
04/02/2020,21:53,80.44,80.47,80.35,80.42, 5704
04/02/2020,21:54,80.42,80.45,80.38,80.42, 11718
04/02/2020,21:54,80.45,80.48,80.4,80.45, 16995
04/02/2020,21:55,80.45,80.7,80.44,80.7, 20778
04/02/2020,21:56,80.68,80.74,80.4,80.43, 16409
04/02/2020,21:56,80.44,80.53,80.41,80.53, 21232
04/02/2020,21:57,80.55,80.77,80.5,80.67, 27059
04/02/2020,21:58,80.66,80.81,80.65,80.74, 23089
04/02/2020,21:58,80.74,80.78,80.66,80.71, 18784
04/02/2020,21:59,80.71,80.81,80.58,80.8, 17598
04/02/2020,22:00,80.81,80.83,80.69,80.73, 12748
04/02/2020,22:00,80.75,80.78,80.7,80.75, 16499
04/02/2020,22:01,80.74,80.82,80.71,80.73, 11229
04/02/2020,22:03,80.73,80.73,80.73,80.73, 329840
04/03/2020,15:31,80.39,80.39,80.23,80.23, 13207
04/03/2020,15:31,80.9,80.9,80.9,80.9, 100
04/03/2020,15:33,81.19,81.41,81.12,81.22, 2213
04/03/2020,15:34,81.07,81.49,81.04,81.13, 1945
04/03/2020,15:35,81.22,81.24,81.22,81.23, 700
04/03/2020,15:36,81.31,81.34,81.3,81.32, 400
04/03/2020,15:37,81,81.23,80.92,81.09, 3000
04/03/2020,15:37,81.1,81.19,81.1,81.19, 900
04/03/2020,15:38,80.95,81.13,80.94,80.94, 1415
04/03/2020,15:39,80.91,81,80.89,80.93, 1101
04/03/2020,15:40,80.96,81.01,80.96,81.01, 1100
04/03/2020,15:41,81.11,81.3,81.09,81.09, 1300
04/03/2020,15:42,81.03,81.37,81.03,81.37, 1050
04/03/2020,15:43,81.47,81.49,81.28,81.28, 1216
04/03/2020,15:44,81.29,81.29,81.29,81.29, 100
04/03/2020,15:44,81.24,81.46,81.24,81.44, 2093
04/03/2020,15:45,81.45,81.45,81.22,81.38, 4002
04/03/2020,15:46,81.35,81.4,81.28,81.4, 571
04/03/2020,15:47,81.42,81.68,81.42,81.54, 1584
04/03/2020,15:48,81.46,81.47,81.46,81.47, 200
04/03/2020,15:50,81.25,81.25,81.11,81.15, 1246
04/03/2020,15:50,81.24,81.28,81.22,81.28, 300
04/03/2020,15:52,81.36,81.44,81.16,81.16, 2900
04/03/2020,15:52,81.06,81.15,80.85,81.13, 3540
04/03/2020,15:53,81.15,81.3,80.99,81.3, 1300
04/03/2020,15:53,81.13,81.17,81.06,81.11, 972
04/03/2020,15:55,81.15,81.15,81.13,81.15, 1900
04/03/2020,15:55,81.09,81.09,81.06,81.06, 400
04/03/2020,15:56,81.21,81.22,81.13,81.13, 1104
04/03/2020,15:57,81.21,81.21,81.06,81.14, 800
04/03/2020,15:58,81.28,81.28,81.21,81.21, 269
04/03/2020,15:59,81.1,81.16,81.04,81.1, 1800
04/03/2020,16:00,81.04,81.13,81,81.06, 4018
04/03/2020,16:01,80.99,81.24,80.92,81.19, 2400
04/03/2020,16:02,81.28,81.35,81.28,81.35, 319
04/03/2020,16:03,81.35,81.36,81.29,81.36, 1900
04/03/2020,16:04,81.36,81.36,81.25,81.27, 2303
04/03/2020,16:04,81.27,81.27,81.1,81.1, 500
04/03/2020,16:06,81.11,81.18,81.08,81.11, 1325
04/03/2020,16:07,81.21,81.35,81.21,81.35, 1164
04/03/2020,16:07,81.35,81.35,81.19,81.19, 1253
04/03/2020,16:08,81.14,81.35,81.14,81.32, 600
04/03/2020,16:09,81.22,81.22,81.21,81.21, 200
04/03/2020,16:10,81.14,81.14,81.11,81.11, 500
04/03/2020,16:11,81.04,81.04,80.9,80.98, 800
04/03/2020,16:12,80.94,81,80.88,80.99, 900
04/03/2020,16:13,80.99,81.22,80.99,81.14, 1001
04/03/2020,16:14,81.24,81.24,81.15,81.16, 400
04/03/2020,16:15,81.08,81.08,81,81, 514
04/03/2020,16:16,81,81.02,80.92,81.02, 3302
04/03/2020,16:16,81.02,81.04,80.94,81.04, 1600
04/03/2020,16:18,81.02,81.09,80.89,80.96, 2750
04/03/2020,16:19,80.92,81.08,80.91,81.04, 1500
04/03/2020,16:20,81,81.05,80.94,81.05, 1542
04/03/2020,16:20,80.91,81,80.89,81, 4001
04/03/2020,16:21,80.99,81.11,80.99,81.11, 1801
04/03/2020,16:22,81.04,81.04,80.96,80.99, 2055
04/03/2020,16:23,80.98,80.98,80.89,80.9, 2345
04/03/2020,16:24,80.86,80.92,80.86,80.92, 2506
04/03/2020,16:25,80.9,81.06,80.9,81.06, 3940
04/03/2020,16:26,81.15,81.2,81.1,81.1, 3520
04/03/2020,16:26,81.14,81.14,81,81.05, 1200
04/03/2020,16:28,81,81.06,80.96,81.04, 3075
04/03/2020,16:29,81.06,81.15,80.98,81.15, 3600
04/03/2020,16:29,81.05,81.05,81.05,81.05, 200
04/03/2020,16:31,81.13,81.22,81.1,81.14, 2293
04/03/2020,16:32,81.17,81.17,80.92,80.95, 3700
04/03/2020,16:33,80.95,80.99,80.89,80.98, 3961
04/03/2020,16:34,80.98,81.06,80.97,80.98, 2433
04/03/2020,16:35,81.02,81.08,80.95,81.02, 3362
04/03/2020,16:36,81.01,81.13,80.95,81.01, 5183
04/03/2020,16:36,81.07,81.07,80.97,81.05, 4746
04/03/2020,16:37,81.02,81.08,80.96,81.01, 4154
04/03/2020,16:38,81.05,81.05,80.78,80.91, 16114
04/03/2020,16:39,80.92,81.07,80.91,80.99, 10180
04/03/2020,16:39,81.01,81.02,80.87,80.93, 10225
04/03/2020,16:40,80.93,80.93,80.72,80.74, 4324
04/03/2020,16:40,80.74,80.78,80.7,80.78, 1039
04/03/2020,16:41,80.83,80.85,80.78,80.85, 4727
04/03/2020,16:42,80.92,80.92,80.89,80.91, 1651
04/03/2020,16:43,80.95,81.06,80.88,81.06, 1197
04/03/2020,16:44,81.02,81.02,80.86,80.95, 7069
04/03/2020,16:45,80.97,81.21,80.96,81.13, 5324
04/03/2020,16:46,81.08,81.11,80.97,81, 2717
04/03/2020,16:47,81.03,81.1,81.02,81.02, 341
04/03/2020,16:48,81.02,81.06,81,81.03, 930
04/03/2020,16:49,81,81.05,81,81, 850
04/03/2020,16:51,81,81.06,81,81.06, 300
04/03/2020,16:51,80.95,81.04,80.94,81, 2308
04/03/2020,16:53,81,81.16,80.98,81.06, 1522
04/03/2020,16:53,81.12,81.12,81.04,81.05, 1820
04/03/2020,16:55,80.98,81.02,80.94,81, 3158
04/03/2020,16:56,80.96,81.03,80.89,80.98, 10061
04/03/2020,16:57,80.97,81.19,80.97,81.19, 2700
04/03/2020,16:58,81.22,81.22,81.07,81.11, 2151
04/03/2020,16:59,81.1,81.15,80.97,81.11, 2511
04/03/2020,17:01,80.98,81.12,80.98,81.05, 900
04/03/2020,17:02,81.11,81.23,81.08,81.23, 2808
04/03/2020,17:03,81.14,81.24,81.11,81.11, 500
04/03/2020,17:04,81.08,81.13,80.96,81, 3600
04/03/2020,17:05,80.99,81.15,80.99,81.07, 2000
04/03/2020,17:06,80.97,81.11,80.97,81.06, 6454
04/03/2020,17:08,81.03,81.07,80.95,81, 5485
04/03/2020,17:09,81,81.09,80.99,81.05, 1702
04/03/2020,17:10,81,81.09,81,81.01, 1518
04/03/2020,17:11,81.1,81.17,81.1,81.11, 1005
04/03/2020,17:12,81.14,81.16,81.06,81.06, 600
04/03/2020,17:13,81.03,81.03,80.98,80.99, 1901
04/03/2020,17:15,80.99,81.08,80.98,81.08, 1841
04/03/2020,17:15,81.08,81.14,80.99,81.03, 1101
04/03/2020,17:16,81.03,81.05,81,81.05, 300
04/03/2020,17:17,81.04,81.04,81.03,81.03, 200
04/03/2020,17:18,81.05,81.08,81.05,81.08, 3957
04/03/2020,17:19,81.04,81.04,81,81.03, 1875
04/03/2020,17:20,81,81.05,80.98,81.05, 5586
04/03/2020,17:22,81.03,81.17,81,81.03, 4800
04/03/2020,17:23,81.02,81.06,80.98,81.04, 4768
04/03/2020,17:24,81.02,81.03,80.97,81.01, 3643
04/03/2020,17:25,80.99,81.03,80.93,81, 3800
04/03/2020,17:27,81.05,81.09,80.99,80.99, 3104
04/03/2020,17:29,81,81.05,80.98,80.99, 5948
04/03/2020,17:30,80.99,81.06,80.99,81.01, 5101
04/03/2020,17:31,80.99,80.99,80.84,80.86, 3505
04/03/2020,17:32,80.85,80.88,80.56,80.67, 3995
04/03/2020,17:34,80.64,80.76,80.64,80.73, 4811
04/03/2020,17:36,80.74,80.89,80.73,80.74, 3714
04/03/2020,17:38,80.7,80.85,80.67,80.79, 3328
04/03/2020,17:40,80.76,81.17,80.76,81.12, 2547
04/03/2020,17:41,81.05,81.07,80.96,80.96, 700
04/03/2020,17:42,81.01,81.03,80.9,80.9, 500
04/03/2020,17:43,80.93,80.93,80.85,80.85, 1229
04/03/2020,17:44,80.83,80.84,80.61,80.63, 2400
04/03/2020,17:45,80.6,80.68,80.54,80.63, 3015
04/03/2020,17:45,80.64,80.71,80.64,80.7, 1757
04/03/2020,17:47,80.67,80.67,80.53,80.53, 1800
04/03/2020,17:48,80.52,80.56,80.49,80.51, 770
04/03/2020,17:49,80.48,80.59,80.44,80.59, 1733
04/03/2020,17:49,80.54,80.59,80.49,80.54, 600
04/03/2020,17:51,80.59,80.62,80.57,80.59, 2949
04/03/2020,17:52,80.52,80.6,80.49,80.6, 2129
04/03/2020,17:53,80.59,80.6,80.54,80.6, 2663
04/03/2020,17:54,80.59,80.7,80.59,80.64, 1300
04/03/2020,17:55,80.58,80.65,80.58,80.63, 2794
04/03/2020,17:56,80.59,80.69,80.59,80.69, 1104
04/03/2020,17:56,80.72,80.83,80.72,80.83, 1701
04/03/2020,17:58,80.88,80.88,80.78,80.78, 900
04/03/2020,17:59,80.78,80.82,80.77,80.81, 2890
04/03/2020,18:00,80.8,80.87,80.77,80.87, 3200
04/03/2020,18:01,80.85,80.99,80.78,80.98, 2746
04/03/2020,18:02,80.92,80.93,80.9,80.93, 861
04/03/2020,18:03,80.93,80.93,80.89,80.89, 1209
04/03/2020,18:03,80.81,80.85,80.76,80.76, 900
04/03/2020,18:05,80.79,80.87,80.77,80.86, 3231
04/03/2020,18:06,80.84,81.01,80.84,80.89, 2100
04/03/2020,18:07,80.81,80.81,80.72,80.76, 3009
04/03/2020,18:08,80.76,80.81,80.68,80.68, 3715
04/03/2020,18:09,80.72,80.72,80.58,80.62, 2315
04/03/2020,18:10,80.65,80.71,80.63,80.71, 4957
04/03/2020,18:11,80.78,80.79,80.71,80.79, 1402
04/03/2020,18:12,80.76,80.79,80.73,80.73, 800
04/03/2020,18:13,80.76,80.82,80.72,80.8, 3582
04/03/2020,18:14,80.8,80.8,80.75,80.8, 6467
04/03/2020,18:15,80.82,80.83,80.78,80.79, 2430
04/03/2020,18:16,80.8,80.93,80.8,80.85, 1665
04/03/2020,18:17,80.86,80.87,80.82,80.82, 1100
04/03/2020,18:18,80.81,80.81,80.76,80.8, 3381
04/03/2020,18:19,80.82,80.82,80.73,80.79, 3500
04/03/2020,18:20,80.76,80.78,80.7,80.7, 3600
04/03/2020,18:21,80.68,80.72,80.61,80.67, 5885
04/03/2020,18:22,80.66,80.71,80.64,80.69, 900
04/03/2020,18:23,80.72,80.81,80.67,80.76, 5300
04/03/2020,18:24,80.77,80.82,80.77,80.82, 2001
04/03/2020,18:25,80.86,80.88,80.8,80.8, 2019
04/03/2020,18:26,80.8,80.8,80.73,80.8, 3700
04/03/2020,18:27,80.76,80.81,80.73,80.79, 10159
04/03/2020,18:28,80.77,80.82,80.73,80.8, 10627
04/03/2020,18:29,80.82,80.95,80.78,80.94, 3324
04/03/2020,18:30,80.89,80.89,80.82,80.82, 2625
04/03/2020,18:31,80.83,80.88,80.82,80.82, 900
04/03/2020,18:32,80.88,80.97,80.8,80.8, 3554
04/03/2020,18:33,80.8,80.82,80.74,80.74, 2124
04/03/2020,18:34,80.74,80.84,80.71,80.84, 2700
04/03/2020,18:35,80.82,80.85,80.79,80.8, 9587
04/03/2020,18:36,80.78,80.89,80.77,80.82, 8747
04/03/2020,18:37,80.85,80.9,80.82,80.82, 1269
04/03/2020,18:38,80.8,80.85,80.79,80.8, 1071
04/03/2020,18:39,80.8,80.8,80.78,80.78, 1179
04/03/2020,18:40,80.8,80.86,80.8,80.86, 1210
04/03/2020,18:41,80.86,80.9,80.86,80.9, 404
04/03/2020,18:42,80.86,80.96,80.86,80.9, 5405
04/03/2020,18:43,80.9,80.9,80.89,80.9, 400
04/03/2020,18:44,80.93,81.03,80.9,80.97, 2698
04/03/2020,18:45,80.99,81.05,80.99,81.04, 922
04/03/2020,18:45,81.02,81.06,81,81.01, 600
04/03/2020,18:47,80.95,80.95,80.88,80.89, 2000
04/03/2020,18:48,80.9,80.92,80.88,80.92, 2285
04/03/2020,18:48,80.9,80.93,80.85,80.89, 2001
04/03/2020,18:50,80.91,80.91,80.84,80.88, 4033
04/03/2020,18:50,80.89,80.9,80.84,80.87, 1978
04/03/2020,18:52,80.88,80.91,80.85,80.85, 2927
04/03/2020,18:53,80.85,80.99,80.85,80.99, 1300
04/03/2020,18:54,80.95,80.99,80.86,80.92, 1558
04/03/2020,18:54,80.92,80.92,80.89,80.9, 700
04/03/2020,18:56,80.9,80.92,80.86,80.86, 3955
04/03/2020,18:57,80.89,80.92,80.87,80.92, 1117
04/03/2020,18:58,80.93,80.97,80.85,80.88, 3100
04/03/2020,18:58,80.9,80.94,80.88,80.94, 800
04/03/2020,19:00,80.99,81,80.97,80.97, 647
04/03/2020,19:01,80.95,80.99,80.92,80.96, 803
04/03/2020,19:01,80.91,80.94,80.9,80.9, 1100
04/03/2020,19:03,80.95,80.95,80.87,80.88, 1600
04/03/2020,19:04,80.87,80.91,80.84,80.87, 2800
04/03/2020,19:05,80.89,80.97,80.87,80.89, 2499
04/03/2020,19:05,80.86,80.92,80.86,80.91, 2600
04/03/2020,19:06,80.95,80.99,80.94,80.94, 600
04/03/2020,19:08,80.91,81.01,80.89,81.01, 1614
04/03/2020,19:08,80.95,80.95,80.95,80.95, 100
04/03/2020,19:10,80.94,80.94,80.94,80.94, 100
04/03/2020,19:11,80.97,81.03,80.96,80.96, 1103
04/03/2020,19:12,81,81,80.96,80.99, 1200
04/03/2020,19:13,80.95,81,80.94,80.97, 5692
04/03/2020,19:14,80.96,80.98,80.84,80.85, 8526
04/03/2020,19:15,80.83,80.86,80.8,80.8, 1088
04/03/2020,19:16,80.78,80.89,80.78,80.89, 3317
04/03/2020,19:17,80.9,80.94,80.9,80.9, 1700
04/03/2020,19:17,80.9,80.96,80.9,80.96, 600
04/03/2020,19:18,80.94,80.94,80.9,80.9, 400
04/03/2020,19:20,80.96,81.03,80.95,81, 4803
04/03/2020,19:21,80.98,81,80.93,80.99, 2212
04/03/2020,19:22,80.96,80.96,80.89,80.92, 1510
04/03/2020,19:23,80.88,80.93,80.86,80.9, 1700
04/03/2020,19:23,80.87,80.93,80.87,80.92, 916
04/03/2020,19:25,80.91,80.92,80.86,80.92, 19361
04/03/2020,19:26,80.91,80.91,80.84,80.84, 4688
04/03/2020,19:27,80.82,80.82,80.69,80.73, 3600
04/03/2020,19:28,80.75,80.81,80.74,80.76, 3859
04/03/2020,19:29,80.83,80.83,80.79,80.8, 4866
04/03/2020,19:30,80.83,80.88,80.83,80.88, 1098
04/03/2020,19:31,80.88,80.88,80.78,80.81, 3120
04/03/2020,19:32,80.78,80.8,80.73,80.76, 4607
04/03/2020,19:33,80.79,80.83,80.76,80.83, 1858
04/03/2020,19:34,80.81,80.85,80.79,80.83, 1665
04/03/2020,19:35,80.8,80.84,80.8,80.84, 1900
04/03/2020,19:35,80.87,80.87,80.87,80.87, 126
04/03/2020,19:36,80.9,80.91,80.9,80.9, 623
04/03/2020,19:38,80.91,80.92,80.89,80.92, 1600
04/03/2020,19:39,80.9,80.9,80.77,80.81, 3934
04/03/2020,19:40,80.84,80.86,80.81,80.83, 916
04/03/2020,19:41,80.83,80.84,80.73,80.78, 3509
04/03/2020,19:42,80.73,80.77,80.73,80.77, 409
04/03/2020,19:43,80.77,80.79,80.75,80.76, 846
04/03/2020,19:44,80.76,80.76,80.71,80.75, 7868
04/03/2020,19:45,80.74,80.8,80.73,80.77, 1921
04/03/2020,19:46,80.77,80.85,80.77,80.85, 5402
04/03/2020,19:46,80.85,80.9,80.85,80.88, 612
04/03/2020,19:48,80.83,80.89,80.83,80.85, 1347
04/03/2020,19:49,80.87,80.91,80.87,80.9, 1372
04/03/2020,19:50,80.93,80.93,80.81,80.82, 6408
04/03/2020,19:51,80.81,80.92,80.81,80.92, 4697
04/03/2020,19:51,80.88,80.88,80.87,80.87, 314
04/03/2020,19:53,80.86,80.86,80.82,80.82, 2161
04/03/2020,19:54,80.81,80.81,80.53,80.6, 7674
04/03/2020,19:55,80.64,80.69,80.59,80.69, 5568
04/03/2020,19:56,80.68,80.68,80.63,80.63, 1518
04/03/2020,19:57,80.6,80.64,80.59,80.59, 1200
04/03/2020,19:58,80.59,80.67,80.59,80.67, 1000
04/03/2020,19:59,80.6,80.6,80.56,80.6, 2825
04/03/2020,20:00,80.61,80.68,80.59,80.59, 1553
04/03/2020,20:01,80.65,80.65,80.58,80.61, 1900
04/03/2020,20:01,80.65,80.75,80.65,80.71, 2008
04/03/2020,20:03,80.74,80.83,80.71,80.72, 2800
04/03/2020,20:04,80.72,80.72,80.64,80.67, 7262
04/03/2020,20:05,80.63,80.63,80.51,80.52, 4328
04/03/2020,20:06,80.53,80.57,80.5,80.51, 1700
04/03/2020,20:07,80.55,80.69,80.53,80.56, 7061
04/03/2020,20:08,80.57,80.69,80.57,80.69, 8233
04/03/2020,20:09,80.67,80.7,80.65,80.7, 7580
04/03/2020,20:09,80.74,80.74,80.72,80.72, 300
04/03/2020,20:11,80.71,80.71,80.64,80.65, 2300
04/03/2020,20:12,80.65,80.74,80.62,80.74, 8236
04/03/2020,20:12,80.72,80.74,80.67,80.7, 1200
04/03/2020,20:14,80.7,80.74,80.66,80.74, 4110
04/03/2020,20:15,80.76,80.76,80.68,80.69, 1040
04/03/2020,20:16,80.69,80.73,80.67,80.72, 3628
04/03/2020,20:17,80.68,80.68,80.47,80.47, 4608
04/03/2020,20:17,80.5,80.57,80.5,80.52, 2776
04/03/2020,20:19,80.53,80.54,80.47,80.5, 2861
04/03/2020,20:20,80.54,80.54,80.48,80.51, 2714
04/03/2020,20:21,80.52,80.53,80.48,80.49, 2757
04/03/2020,20:22,80.5,80.6,80.49,80.6, 3602
04/03/2020,20:23,80.62,80.64,80.48,80.53, 5422
04/03/2020,20:24,80.54,80.66,80.54,80.56, 3598
04/03/2020,20:25,80.49,80.55,80.49,80.55, 3708
04/03/2020,20:26,80.55,80.65,80.55,80.58, 4635
04/03/2020,20:27,80.53,80.6,80.53,80.58, 1714
04/03/2020,20:28,80.54,80.54,80.49,80.51, 900
04/03/2020,20:29,80.49,80.49,80.43,80.45, 3339
04/03/2020,20:30,80.47,80.56,80.45,80.49, 2825
04/03/2020,20:31,80.53,80.64,80.53,80.58, 4800
04/03/2020,20:32,80.54,80.54,80.45,80.48, 1904
04/03/2020,20:33,80.42,80.42,80.32,80.32, 600
04/03/2020,20:34,80.34,80.36,80.25,80.29, 2742
04/03/2020,20:35,80.25,80.25,80.17,80.17, 1000
04/03/2020,20:36,80.17,80.32,80.17,80.32, 2799
04/03/2020,20:37,80.27,80.36,80.25,80.28, 7042
04/03/2020,20:38,80.28,80.4,80.28,80.38, 5936
04/03/2020,20:39,80.43,80.44,80.38,80.44, 2500
04/03/2020,20:40,80.47,80.52,80.45,80.47, 2163
04/03/2020,20:41,80.46,80.57,80.45,80.45, 19545
04/03/2020,20:42,80.49,80.54,80.49,80.49, 3327
04/03/2020,20:43,80.49,80.49,80.46,80.47, 1240
04/03/2020,20:44,80.45,80.46,80.39,80.39, 3773
04/03/2020,20:45,80.37,80.42,80.32,80.4, 4564
04/03/2020,20:46,80.4,80.43,80.37,80.4, 6978
04/03/2020,20:46,80.42,80.51,80.42,80.47, 3781
04/03/2020,20:48,80.46,80.55,80.43,80.55, 5053
04/03/2020,20:48,80.52,80.54,80.5,80.53, 8265
04/03/2020,20:49,80.49,80.53,80.47,80.53, 5897
04/03/2020,20:51,80.54,80.64,80.51,80.64, 6416
04/03/2020,20:51,80.67,80.68,80.61,80.61, 1603
04/03/2020,20:53,80.6,80.82,80.6,80.78, 3128
04/03/2020,20:54,80.81,80.86,80.75,80.75, 8399
04/03/2020,20:55,80.77,80.77,80.64,80.64, 1213
04/03/2020,20:55,80.64,80.64,80.56,80.56, 1100
04/03/2020,20:57,80.55,80.57,80.48,80.56, 4969
04/03/2020,20:58,80.56,80.58,80.52,80.58, 670
04/03/2020,20:59,80.6,80.67,80.6,80.63, 2849
04/03/2020,21:00,80.6,80.6,80.5,80.5, 1301
04/03/2020,21:01,80.55,80.66,80.54,80.66, 2900
04/03/2020,21:02,80.64,80.73,80.56,80.71, 3104
04/03/2020,21:03,80.69,80.7,80.63,80.63, 1167
04/03/2020,21:04,80.64,80.64,80.47,80.48, 8929
04/03/2020,21:05,80.5,80.59,80.49,80.55, 7881
04/03/2020,21:06,80.56,80.58,80.49,80.54, 6805
04/03/2020,21:07,80.53,80.55,80.48,80.52, 9673
04/03/2020,21:08,80.5,80.63,80.49,80.61, 8404
04/03/2020,21:09,80.61,80.64,80.53,80.55, 4100
04/03/2020,21:10,80.53,80.57,80.51,80.52, 2079
04/03/2020,21:11,80.5,80.55,80.48,80.5, 7482
04/03/2020,21:12,80.5,80.54,80.49,80.52, 4487
04/03/2020,21:13,80.53,80.56,80.48,80.5, 5097
04/03/2020,21:14,80.49,80.52,80.47,80.51, 7357
04/03/2020,21:14,80.51,80.6,80.5,80.6, 3600
04/03/2020,21:16,80.55,80.62,80.5,80.55, 4461
04/03/2020,21:17,80.55,80.58,80.48,80.52, 6373
04/03/2020,21:18,80.47,80.54,80.46,80.47, 4950
04/03/2020,21:19,80.48,80.75,80.45,80.7, 8891
04/03/2020,21:20,80.69,80.84,80.66,80.79, 7101
04/03/2020,21:21,80.69,80.71,80.61,80.61, 2089
04/03/2020,21:21,80.61,80.63,80.57,80.6, 1100
04/03/2020,21:23,80.5,80.54,80.43,80.5, 5882
04/03/2020,21:24,80.5,80.52,80.46,80.48, 4985
04/03/2020,21:25,80.5,80.5,80.44,80.49, 5188
04/03/2020,21:26,80.47,80.48,80.32,80.32, 5682
04/03/2020,21:27,80.33,80.45,80.33,80.38, 8367
04/03/2020,21:27,80.37,80.44,80.35,80.42, 5162
04/03/2020,21:29,80.44,80.46,80.42,80.43, 1201
04/03/2020,21:30,80.45,80.52,80.43,80.52, 6252
04/03/2020,21:31,80.53,80.6,80.51,80.6, 2500
04/03/2020,21:32,80.61,80.75,80.61,80.67, 4200
04/03/2020,21:33,80.69,80.69,80.61,80.64, 4692
04/03/2020,21:34,80.66,80.69,80.6,80.68, 11663
04/03/2020,21:35,80.7,80.76,80.67,80.68, 9630
04/03/2020,21:36,80.67,80.73,80.67,80.7, 8333
04/03/2020,21:37,80.67,80.82,80.67,80.72, 6172
04/03/2020,21:38,80.75,80.76,80.67,80.68, 2951
04/03/2020,21:39,80.67,80.69,80.58,80.59, 14546
04/03/2020,21:40,80.6,80.73,80.6,80.73, 6892
04/03/2020,21:41,80.69,80.7,80.63,80.7, 3770
04/03/2020,21:41,80.69,80.69,80.63,80.68, 2983
04/03/2020,21:43,80.65,80.69,80.64,80.65, 4464
04/03/2020,21:43,80.65,80.66,80.59,80.62, 7805
04/03/2020,21:45,80.61,80.67,80.57,80.63, 9753
04/03/2020,21:46,80.63,80.69,80.58,80.69, 5271
04/03/2020,21:46,80.69,80.73,80.66,80.71, 15582
04/03/2020,21:48,80.7,80.83,80.67,80.74, 6815
04/03/2020,21:49,80.7,80.93,80.7,80.93, 5091
04/03/2020,21:49,80.95,81.12,80.84,81.05, 8301
04/03/2020,21:50,81.08,81.16,81.01,81.02, 3945
04/03/2020,21:51,81.02,81.02,80.55,80.76, 20998
04/03/2020,21:51,80.83,81.04,80.82,80.94, 12711
04/03/2020,21:52,80.95,81.04,80.8,80.84, 17051
04/03/2020,21:53,80.8,80.92,80.75,80.8, 12738
04/03/2020,21:54,80.77,80.86,80.72,80.73, 8723
04/03/2020,21:54,80.73,80.73,80.49,80.67, 12093
04/03/2020,21:55,80.69,80.7,80.58,80.6, 7549
04/03/2020,21:56,80.61,80.69,80.47,80.64, 13389
04/03/2020,21:57,80.7,80.76,80.57,80.65, 16967
04/03/2020,21:57,80.67,80.78,80.57,80.67, 19710
04/03/2020,21:58,80.65,80.75,80.53,80.6, 40585
04/03/2020,21:59,80.59,80.66,80.55,80.65, 32876
04/03/2020,22:00,80.67,80.7,80.65,80.65, 27323
04/03/2020,22:00,80.65,80.67,80.43,80.47, 34450
04/03/2020,22:03,80.47,80.47,80.29,80.43, 375239
04/06/2020,15:31,84.39,84.94,84,84.84, 20366
04/06/2020,15:32,85.07,85.62,84.99,85.62, 800
04/06/2020,15:33,84.89,85.83,84.76,85.83, 500
04/06/2020,15:34,85.38,85.38,84.77,84.77, 300
04/06/2020,15:34,84.77,84.78,84.16,84.69, 1928
04/06/2020,15:35,84.78,84.79,84.78,84.79, 200
04/06/2020,15:36,84.45,84.58,84.02,84.41, 900
04/06/2020,15:37,84.07,84.2,84.07,84.2, 200
04/06/2020,15:37,84.54,84.79,84.25,84.74, 1671
04/06/2020,15:37,84.71,84.99,84.71,84.99, 2252
04/06/2020,15:39,85.07,85.35,85.07,85.35, 500
04/06/2020,15:39,85.48,85.49,85.16,85.18, 3085
04/06/2020,15:40,85,85.17,84.73,84.74, 1000
04/06/2020,15:41,85.12,85.12,85.07,85.1, 500
04/06/2020,15:41,85.34,85.34,85.34,85.34, 100
04/06/2020,15:42,85.07,85.29,85.07,85.09, 300
04/06/2020,15:43,85.15,85.33,85.15,85.33, 669
04/06/2020,15:43,85.35,85.35,85.35,85.35, 200
04/06/2020,15:44,85.36,85.36,85.17,85.17, 500
04/06/2020,15:45,85.2,85.27,85.2,85.27, 267
04/06/2020,15:46,85.27,85.33,85.26,85.33, 1895
04/06/2020,15:46,85.42,85.45,85.38,85.38, 700
04/06/2020,15:47,85.38,85.7,85.38,85.7, 1936
04/06/2020,15:48,85.7,85.89,85.7,85.77, 2544
04/06/2020,15:49,85.67,85.78,85.65,85.65, 1000
04/06/2020,15:49,85.79,85.79,85.46,85.46, 1100
04/06/2020,15:50,85.5,85.5,85.47,85.47, 200
04/06/2020,15:51,85.45,85.54,85.37,85.54, 3800
04/06/2020,15:51,85.38,85.93,85.34,85.93, 2792
04/06/2020,15:52,85.73,85.83,85.68,85.68, 1028
04/06/2020,15:52,85.85,85.91,85.76,85.91, 2569
04/06/2020,15:53,85.79,86.15,85.78,86.02, 3521
04/06/2020,15:54,85.94,85.95,85.92,85.93, 600
04/06/2020,15:55,85.98,86.12,85.98,86.12, 1007
04/06/2020,15:55,86.05,86.18,86.02,86.05, 1533
04/06/2020,15:56,86.04,86.07,85.89,85.98, 1506
04/06/2020,15:57,85.88,85.97,85.83,85.83, 500
04/06/2020,15:57,85.94,86.35,85.91,86.35, 2960
04/06/2020,15:58,86.24,86.35,86.24,86.32, 1430
04/06/2020,15:59,86.26,86.63,86.26,86.63, 1296
04/06/2020,16:00,86.54,86.99,86.51,86.99, 3364
04/06/2020,16:01,87,87.04,86.72,86.86, 6186
04/06/2020,16:01,86.86,86.97,86.8,86.8, 1076
04/06/2020,16:02,86.75,86.84,86.75,86.77, 700
04/06/2020,16:03,86.87,87.27,86.87,87.27, 2053
04/06/2020,16:04,87.26,87.37,87.18,87.32, 2800
04/06/2020,16:04,87.3,87.3,87.03,87.03, 1900
04/06/2020,16:05,87.02,87.17,87.01,87.1, 2681
04/06/2020,16:06,87.06,87.09,87.05,87.09, 500
04/06/2020,16:07,87.11,87.13,86.87,87.02, 4893
04/06/2020,16:07,87.03,87.03,86.72,86.72, 2131
04/06/2020,16:08,86.75,86.84,86.73,86.73, 4973
04/06/2020,16:09,86.81,86.95,86.81,86.95, 3400
04/06/2020,16:10,86.98,87.16,86.92,87.16, 1800
04/06/2020,16:11,87.1,87.16,87,87.03, 2165
04/06/2020,16:12,86.88,87.07,86.88,87.05, 2810
04/06/2020,16:12,87.1,87.14,87.06,87.06, 1200
04/06/2020,16:13,87,87.16,87,87.08, 2000
04/06/2020,16:14,87.16,87.16,87.04,87.08, 1480
04/06/2020,16:15,87.04,87.08,86.97,87, 4802
04/06/2020,16:16,86.95,86.95,86.86,86.9, 2400
04/06/2020,16:16,86.93,86.95,86.83,86.92, 1300
04/06/2020,16:17,87,87.09,86.97,87.08, 1200
04/06/2020,16:18,87.08,87.08,87.01,87.01, 900
04/06/2020,16:19,87.03,87.05,86.99,87.03, 1600
04/06/2020,16:19,87.05,87.15,87.04,87.15, 1161
04/06/2020,16:20,87.15,87.25,87.1,87.25, 3036
04/06/2020,16:21,87.23,87.5,87.23,87.44, 1200
04/06/2020,16:22,87.48,87.51,87.4,87.47, 5912
04/06/2020,16:22,87.43,87.51,87.42,87.51, 600
04/06/2020,16:24,87.48,87.61,87.46,87.61, 3105
04/06/2020,16:25,87.57,87.57,87.5,87.5, 2570
04/06/2020,16:25,87.5,87.51,87.4,87.42, 3788
04/06/2020,16:26,87.42,87.49,87.39,87.44, 1778
04/06/2020,16:27,87.44,87.45,87.32,87.32, 1400
04/06/2020,16:28,87.32,87.33,87.26,87.33, 1200
04/06/2020,16:29,87.33,87.33,87.19,87.19, 1900
04/06/2020,16:29,87.21,87.21,87.17,87.18, 1100
04/06/2020,16:30,87.17,87.19,87.04,87.19, 2500
04/06/2020,16:31,87.2,87.25,87.03,87.03, 2501
04/06/2020,16:32,87,87.07,86.88,86.92, 1500
04/06/2020,16:32,86.93,87.01,86.91,86.93, 2650
04/06/2020,16:33,86.88,87,86.87,87, 3707
04/06/2020,16:34,86.99,86.99,86.87,86.93, 900
04/06/2020,16:35,87.02,87.14,87.02,87.08, 700
04/06/2020,16:36,87.22,87.31,87.12,87.12, 3919
04/06/2020,16:36,87.2,87.2,87.04,87.1, 600
04/06/2020,16:37,87.02,87.02,86.81,86.82, 1390
04/06/2020,16:38,86.81,87,86.79,86.98, 4290
04/06/2020,16:39,86.84,86.88,86.73,86.73, 400
04/06/2020,16:40,86.83,86.97,86.82,86.87, 1400
04/06/2020,16:41,86.8,86.95,86.78,86.82, 2904
04/06/2020,16:42,86.84,86.84,86.71,86.76, 4302
04/06/2020,16:43,86.81,86.81,86.73,86.73, 1200
04/06/2020,16:44,86.73,86.73,86.63,86.66, 2168
04/06/2020,16:44,86.6,86.67,86.6,86.67, 1200
04/06/2020,16:45,86.61,86.63,86.53,86.6, 2063
04/06/2020,16:46,86.56,86.58,86.4,86.49, 3992
04/06/2020,16:48,86.49,86.54,86.42,86.45, 10418
04/06/2020,16:48,86.42,86.42,86.34,86.34, 1323
04/06/2020,16:50,86.33,86.36,86.11,86.11, 11600
04/06/2020,16:51,86.15,86.69,86.14,86.65, 18904
04/06/2020,16:51,86.69,87,86.63,86.96, 5453
04/06/2020,16:53,86.95,87.1,86.8,87.04, 11067
04/06/2020,16:53,87.07,87.17,86.94,87.07, 5403
04/06/2020,16:54,87.01,87.01,86.99,86.99, 400
04/06/2020,16:56,86.92,86.98,86.92,86.95, 500
04/06/2020,16:56,86.91,87.11,86.91,86.94, 2942
04/06/2020,16:57,86.96,86.96,86.9,86.92, 1776
04/06/2020,16:58,86.99,87.02,86.86,86.86, 2514
04/06/2020,16:59,86.86,86.86,86.81,86.82, 1400
04/06/2020,17:00,86.83,86.84,86.66,86.66, 1300
04/06/2020,17:01,86.77,86.8,86.74,86.74, 800
04/06/2020,17:02,86.72,86.79,86.63,86.63, 3991
04/06/2020,17:03,86.55,86.55,86.33,86.41, 2500
04/06/2020,17:04,86.36,86.66,86.35,86.62, 4955
04/06/2020,17:06,86.65,86.67,86.56,86.59, 3034
04/06/2020,17:07,86.57,86.57,86.46,86.5, 2396
04/06/2020,17:08,86.53,86.59,86.46,86.56, 1600
04/06/2020,17:09,86.6,86.6,86.46,86.46, 1300
04/06/2020,17:11,86.36,86.42,86.32,86.32, 476
04/06/2020,17:12,86.3,86.32,86.09,86.15, 2700
04/06/2020,17:14,86.16,86.23,86.16,86.22, 2100
04/06/2020,17:15,86.18,86.25,86.17,86.23, 3258
04/06/2020,17:16,86.21,86.58,86.21,86.57, 3708
04/06/2020,17:18,86.55,86.58,86.45,86.45, 2924
04/06/2020,17:20,86.44,86.47,86.33,86.4, 1875
04/06/2020,17:22,86.42,86.42,86.29,86.29, 865
04/06/2020,17:23,86.25,86.36,86.25,86.29, 3336
04/06/2020,17:24,86.28,86.42,86.28,86.39, 3914
04/06/2020,17:26,86.39,86.46,86.39,86.41, 914
04/06/2020,17:27,86.44,86.52,86.44,86.46, 2240
04/06/2020,17:29,86.5,86.71,86.5,86.68, 1400
04/06/2020,17:30,86.69,86.76,86.69,86.75, 2787
04/06/2020,17:31,86.7,86.73,86.7,86.72, 300
04/06/2020,17:33,86.73,86.81,86.62,86.69, 2600
04/06/2020,17:35,86.76,86.85,86.76,86.76, 3096
04/06/2020,17:37,86.74,86.79,86.62,86.62, 2597
04/06/2020,17:39,86.65,86.65,86.54,86.54, 4368
04/06/2020,17:41,86.54,86.74,86.54,86.64, 2734
04/06/2020,17:43,86.66,86.86,86.66,86.86, 2615
04/06/2020,17:44,86.82,86.88,86.79,86.87, 2500
04/06/2020,17:47,86.83,86.89,86.73,86.76, 4100
04/06/2020,17:48,86.72,86.94,86.72,86.91, 2979
04/06/2020,17:50,86.96,87.09,86.96,87.04, 1800
04/06/2020,17:52,87.04,87.05,87,87.02, 2105
04/06/2020,17:54,87.08,87.12,86.89,87.03, 7210
04/06/2020,17:55,87.07,87.23,87.07,87.2, 3339
04/06/2020,17:58,87.23,87.24,87.15,87.18, 6048
04/06/2020,18:01,87.21,87.28,87.14,87.24, 12323
04/06/2020,18:02,87.2,87.23,87.1,87.2, 7007
04/06/2020,18:04,87.23,87.25,87.15,87.18, 4198
04/06/2020,18:05,87.14,87.17,87.14,87.17, 900
04/06/2020,18:06,87.2,87.23,87.07,87.08, 1699
04/06/2020,18:07,87.05,87.09,87.02,87.09, 1881
04/06/2020,18:08,87.06,87.15,87.06,87.13, 2390
04/06/2020,18:09,87.18,87.21,87.17,87.21, 1475
04/06/2020,18:10,87.2,87.27,87.16,87.26, 2000
04/06/2020,18:11,87.23,87.24,87.18,87.19, 1500
04/06/2020,18:12,87.26,87.35,87.26,87.27, 1400
04/06/2020,18:13,87.18,87.21,87.13,87.16, 1830
04/06/2020,18:14,87.17,87.3,87.15,87.23, 1500
04/06/2020,18:15,87.28,87.42,87.28,87.4, 1113
04/06/2020,18:16,87.38,87.42,87.35,87.42, 1403
04/06/2020,18:17,87.41,87.49,87.4,87.42, 3522
04/06/2020,18:18,87.45,87.45,87.4,87.44, 700
04/06/2020,18:19,87.41,87.49,87.41,87.44, 1242
04/06/2020,18:20,87.49,87.49,87.4,87.49, 2910
04/06/2020,18:21,87.48,87.48,87.48,87.48, 200
04/06/2020,18:22,87.52,87.58,87.5,87.55, 2648
04/06/2020,18:23,87.61,87.63,87.61,87.63, 200
04/06/2020,18:24,87.61,87.68,87.58,87.68, 1900
04/06/2020,18:25,87.66,87.66,87.55,87.61, 2042
04/06/2020,18:26,87.55,87.55,87.48,87.48, 400
04/06/2020,18:27,87.48,87.48,87.38,87.43, 1803
04/06/2020,18:28,87.46,87.46,87.27,87.27, 950
04/06/2020,18:29,87.24,87.35,87.24,87.29, 1420
04/06/2020,18:30,87.34,87.34,87.26,87.33, 1300
04/06/2020,18:31,87.26,87.26,87.2,87.2, 800
04/06/2020,18:32,87.23,87.38,87.22,87.37, 4306
04/06/2020,18:33,87.34,87.36,87.31,87.31, 601
04/06/2020,18:34,87.28,87.34,87.28,87.32, 700
04/06/2020,18:35,87.33,87.38,87.33,87.33, 1425
04/06/2020,18:36,87.36,87.42,87.33,87.37, 1400
04/06/2020,18:37,87.37,87.37,87.24,87.24, 991
04/06/2020,18:38,87.19,87.27,87.19,87.26, 1342
04/06/2020,18:38,87.31,87.33,87.31,87.33, 400
04/06/2020,18:40,87.42,87.46,87.39,87.44, 3330
04/06/2020,18:41,87.42,87.44,87.23,87.29, 2075
04/06/2020,18:42,87.26,87.29,87.19,87.19, 1600
04/06/2020,18:43,87.22,87.28,87.19,87.25, 2700
04/06/2020,18:44,87.23,87.24,87.23,87.23, 535
04/06/2020,18:45,87.23,87.27,87.19,87.19, 2135
04/06/2020,18:46,87.17,87.17,87.07,87.13, 1773
04/06/2020,18:47,87.09,87.14,87.09,87.14, 600
04/06/2020,18:48,87.14,87.18,87.11,87.18, 1600
04/06/2020,18:49,87.15,87.19,87.14,87.19, 600
04/06/2020,18:50,87.16,87.22,87.09,87.09, 2100
04/06/2020,18:51,87.07,87.07,86.93,86.94, 2257
04/06/2020,18:52,86.94,87.06,86.94,87.06, 1757
04/06/2020,18:53,87,87,86.93,86.96, 1500
04/06/2020,18:54,86.92,86.95,86.85,86.91, 11986
04/06/2020,18:55,86.88,86.93,86.87,86.91, 2301
04/06/2020,18:56,86.9,86.94,86.84,86.91, 2839
04/06/2020,18:57,86.93,87,86.9,86.97, 3896
04/06/2020,18:58,86.97,87.02,86.94,87.02, 800
04/06/2020,18:59,87.04,87.11,87.03,87.06, 700
04/06/2020,19:01,87.02,87.14,87.02,87.14, 1353
04/06/2020,19:02,87.12,87.13,87.12,87.13, 400
04/06/2020,19:03,87.06,87.12,87.03,87.1, 1500
04/06/2020,19:04,87.11,87.11,86.94,86.94, 1075
04/06/2020,19:05,86.92,87.07,86.92,87.03, 2800
04/06/2020,19:06,87.04,87.06,86.96,87.05, 1305
04/06/2020,19:07,86.99,87,86.98,86.99, 442
04/06/2020,19:08,87.01,87.03,86.94,87.02, 1600
04/06/2020,19:09,87,87.08,87,87.08, 1237
04/06/2020,19:10,87.05,87.05,87.02,87.02, 200
04/06/2020,19:11,86.99,87.07,86.99,86.99, 1500
04/06/2020,19:12,87,87.08,86.96,87.08, 19619
04/06/2020,19:13,87.03,87.06,87.02,87.03, 1100
04/06/2020,19:14,86.98,87.02,86.98,87, 500
04/06/2020,19:15,86.98,86.98,86.9,86.94, 2482
04/06/2020,19:16,86.96,86.96,86.88,86.9, 1121
04/06/2020,19:17,86.93,86.99,86.93,86.98, 1406
04/06/2020,19:18,86.97,87,86.91,86.96, 1900
04/06/2020,19:19,86.97,87.06,86.96,87.04, 700
04/06/2020,19:20,87.03,87.11,87.03,87.11, 800
04/06/2020,19:21,87.1,87.11,87.07,87.08, 700
04/06/2020,19:22,87.11,87.14,87.06,87.13, 968
04/06/2020,19:23,87.11,87.12,87.05,87.06, 3400
04/06/2020,19:24,87.1,87.11,87.06,87.11, 2985
04/06/2020,19:25,87.08,87.09,87.05,87.05, 1859
04/06/2020,19:26,87.06,87.11,87.06,87.08, 3411
04/06/2020,19:27,87.09,87.2,87.07,87.14, 1400
04/06/2020,19:28,87.19,87.2,87.06,87.06, 3074
04/06/2020,19:29,87.05,87.09,87.04,87.04, 1450
04/06/2020,19:30,87.08,87.1,86.93,86.98, 5930
04/06/2020,19:31,86.99,87.07,86.97,87.04, 4029
04/06/2020,19:32,86.98,87.03,86.9,86.96, 1700
04/06/2020,19:33,86.9,86.91,86.88,86.88, 1800
04/06/2020,19:34,86.88,86.88,86.82,86.82, 854
04/06/2020,19:35,86.82,86.91,86.8,86.89, 2011
04/06/2020,19:36,86.88,86.96,86.88,86.96, 1743
04/06/2020,19:37,86.92,86.93,86.86,86.9, 1301
04/06/2020,19:38,86.9,86.93,86.82,86.91, 4661
04/06/2020,19:39,86.95,86.99,86.92,86.99, 2600
04/06/2020,19:40,87.03,87.03,86.98,87, 1400
04/06/2020,19:41,86.99,87.06,86.94,87.06, 3105
04/06/2020,19:42,87.03,87.13,87.03,87.1, 1328
04/06/2020,19:43,87.06,87.11,87.06,87.1, 1544
04/06/2020,19:44,87.09,87.14,87.08,87.1, 4093
04/06/2020,19:45,87.11,87.13,87.09,87.11, 983
04/06/2020,19:46,87.14,87.22,87.09,87.09, 3900
04/06/2020,19:47,87.1,87.15,87.09,87.12, 2398
04/06/2020,19:48,87.13,87.13,87.08,87.08, 1105
04/06/2020,19:49,87.1,87.14,87.07,87.09, 3024
04/06/2020,19:50,87.09,87.2,87.08,87.08, 6523
04/06/2020,19:51,87.07,87.08,87.06,87.06, 1105
04/06/2020,19:52,87.06,87.15,87.06,87.1, 5302
04/06/2020,19:53,87.08,87.1,87.03,87.09, 1600
04/06/2020,19:54,87.09,87.12,87.06,87.12, 3419
04/06/2020,19:55,87.07,87.11,87.02,87.05, 3545
04/06/2020,19:56,87.04,87.07,87.02,87.02, 3200
04/06/2020,19:57,87.02,87.07,86.94,86.94, 2726
04/06/2020,19:58,86.96,86.97,86.9,86.97, 4555
04/06/2020,19:59,86.93,87.04,86.93,87.01, 2385
04/06/2020,20:00,86.97,87.02,86.97,87, 1435
04/06/2020,20:01,86.95,86.97,86.9,86.9, 1700
04/06/2020,20:02,86.92,86.95,86.87,86.87, 2200
04/06/2020,20:03,86.86,86.86,86.72,86.72, 1600
04/06/2020,20:04,86.71,86.76,86.64,86.75, 5200
04/06/2020,20:05,86.7,86.7,86.68,86.7, 697
04/06/2020,20:06,86.71,86.72,86.64,86.64, 1300
04/06/2020,20:07,86.62,86.62,86.53,86.55, 4128
04/06/2020,20:08,86.57,86.57,86.53,86.54, 1404
04/06/2020,20:09,86.54,86.55,86.5,86.5, 1722
04/06/2020,20:10,86.52,86.53,86.36,86.42, 7919
04/06/2020,20:11,86.42,86.51,86.39,86.51, 6801
04/06/2020,20:12,86.5,86.53,86.48,86.51, 2400
04/06/2020,20:13,86.5,86.55,86.5,86.55, 3037
04/06/2020,20:14,86.53,86.6,86.52,86.58, 2016
04/06/2020,20:15,86.57,86.57,86.44,86.45, 5738
04/06/2020,20:16,86.44,86.48,86.38,86.47, 6101
04/06/2020,20:17,86.48,86.5,86.47,86.49, 3125
04/06/2020,20:18,86.47,86.5,86.44,86.5, 4888
04/06/2020,20:19,86.5,86.54,86.48,86.52, 5476
04/06/2020,20:20,86.5,86.59,86.5,86.55, 2212
04/06/2020,20:21,86.56,86.57,86.52,86.55, 2700
04/06/2020,20:22,86.53,86.55,86.44,86.45, 6416
04/06/2020,20:23,86.47,86.5,86.42,86.45, 4575
04/06/2020,20:24,86.45,86.61,86.45,86.61, 4300
04/06/2020,20:25,86.58,86.63,86.57,86.63, 3200
04/06/2020,20:26,86.6,86.63,86.57,86.63, 2378
04/06/2020,20:27,86.57,86.62,86.57,86.58, 1842
04/06/2020,20:28,86.58,86.61,86.48,86.54, 7000
04/06/2020,20:29,86.54,86.58,86.53,86.56, 3056
04/06/2020,20:30,86.56,86.58,86.53,86.57, 1206
04/06/2020,20:31,86.54,86.6,86.49,86.52, 3455
04/06/2020,20:32,86.53,86.72,86.53,86.72, 3177
04/06/2020,20:33,86.65,86.66,86.59,86.61, 2675
04/06/2020,20:34,86.65,86.65,86.54,86.54, 900
04/06/2020,20:35,86.52,86.66,86.47,86.58, 10079
04/06/2020,20:36,86.61,86.66,86.6,86.64, 1879
04/06/2020,20:37,86.62,86.65,86.58,86.65, 2469
04/06/2020,20:38,86.66,86.69,86.6,86.6, 1781
04/06/2020,20:39,86.58,86.59,86.53,86.53, 2926
04/06/2020,20:40,86.53,86.57,86.52,86.52, 1500
04/06/2020,20:41,86.51,86.55,86.49,86.52, 3900
04/06/2020,20:42,86.5,86.56,86.48,86.56, 3000
04/06/2020,20:43,86.54,86.6,86.54,86.6, 1000
04/06/2020,20:44,86.6,86.6,86.51,86.52, 2400
04/06/2020,20:45,86.54,86.57,86.51,86.55, 4253
04/06/2020,20:46,86.53,86.57,86.5,86.55, 4690
04/06/2020,20:47,86.57,86.67,86.56,86.63, 2505
04/06/2020,20:48,86.65,86.66,86.62,86.66, 1089
04/06/2020,20:49,86.67,86.68,86.63,86.67, 1669
04/06/2020,20:50,86.64,86.69,86.64,86.68, 2615
04/06/2020,20:51,86.64,86.65,86.56,86.63, 2027
04/06/2020,20:52,86.62,86.64,86.59,86.59, 1422
04/06/2020,20:53,86.59,86.63,86.59,86.61, 2293
04/06/2020,20:54,86.62,86.66,86.6,86.65, 3322
04/06/2020,20:55,86.67,86.67,86.62,86.63, 1400
04/06/2020,20:56,86.62,86.72,86.62,86.71, 3686
04/06/2020,20:57,86.7,86.81,86.69,86.81, 2752
04/06/2020,20:58,86.81,86.83,86.79,86.81, 1500
04/06/2020,20:59,86.81,86.87,86.79,86.79, 2124
04/06/2020,21:00,86.78,86.8,86.76,86.76, 2203
04/06/2020,21:01,86.77,86.77,86.68,86.72, 4345
04/06/2020,21:02,86.69,86.69,86.57,86.62, 3735
04/06/2020,21:03,86.61,86.69,86.55,86.65, 5480
04/06/2020,21:04,86.72,86.82,86.71,86.82, 4116
04/06/2020,21:05,86.84,86.9,86.81,86.86, 5583
04/06/2020,21:06,86.88,86.93,86.83,86.91, 2123
04/06/2020,21:07,86.91,87,86.91,86.97, 5809
04/06/2020,21:08,86.96,87,86.93,86.99, 6122
04/06/2020,21:09,86.98,87,86.93,86.95, 5751
04/06/2020,21:10,86.97,86.97,86.8,86.81, 5148
04/06/2020,21:11,86.82,86.82,86.77,86.79, 2179
04/06/2020,21:12,86.8,86.8,86.71,86.72, 2704
04/06/2020,21:13,86.73,86.8,86.69,86.78, 7015
04/06/2020,21:14,86.79,86.84,86.76,86.8, 4659
04/06/2020,21:15,86.8,86.83,86.77,86.78, 2904
04/06/2020,21:16,86.77,86.82,86.73,86.81, 1973
04/06/2020,21:17,86.81,86.83,86.76,86.78, 1711
04/06/2020,21:18,86.78,86.79,86.63,86.65, 4388
04/06/2020,21:19,86.65,86.66,86.55,86.55, 7592
04/06/2020,21:20,86.55,86.66,86.55,86.63, 15043
04/06/2020,21:21,86.6,86.67,86.58,86.66, 7869
04/06/2020,21:22,86.67,86.73,86.66,86.73, 8786
04/06/2020,21:23,86.7,86.71,86.63,86.69, 14612
04/06/2020,21:24,86.69,86.75,86.62,86.64, 8590
04/06/2020,21:25,86.64,86.71,86.64,86.65, 3114
04/06/2020,21:26,86.65,86.72,86.6,86.61, 4953
04/06/2020,21:27,86.59,86.66,86.57,86.65, 17622
04/06/2020,21:28,86.64,86.78,86.64,86.65, 4740
04/06/2020,21:29,86.66,86.71,86.64,86.71, 6700
04/06/2020,21:30,86.71,86.82,86.7,86.77, 4697
04/06/2020,21:31,86.79,86.84,86.72,86.83, 5200
04/06/2020,21:32,86.81,86.81,86.74,86.79, 14320
04/06/2020,21:33,86.78,86.88,86.75,86.85, 5456
04/06/2020,21:34,86.85,86.89,86.81,86.83, 6940
04/06/2020,21:35,86.82,86.82,86.67,86.71, 10716
04/06/2020,21:36,86.69,86.74,86.67,86.74, 14106
04/06/2020,21:37,86.74,86.74,86.68,86.7, 9621
04/06/2020,21:38,86.71,86.72,86.69,86.7, 9144
04/06/2020,21:39,86.7,86.76,86.68,86.7, 22196
04/06/2020,21:40,86.69,86.78,86.68,86.7, 8378
04/06/2020,21:41,86.69,86.81,86.69,86.78, 9409
04/06/2020,21:42,86.76,86.79,86.69,86.76, 11183
04/06/2020,21:43,86.77,86.81,86.7,86.72, 10948
04/06/2020,21:44,86.72,86.73,86.65,86.67, 10384
04/06/2020,21:45,86.65,86.82,86.61,86.82, 10955
04/06/2020,21:46,86.81,86.83,86.75,86.77, 4631
04/06/2020,21:46,86.76,86.77,86.68,86.69, 8847
04/06/2020,21:47,86.7,86.72,86.52,86.52, 10326
04/06/2020,21:48,86.53,86.53,86.17,86.17, 10332
04/06/2020,21:49,86.18,86.19,86.02,86.07, 12165
04/06/2020,21:50,86.07,86.08,85.89,86.06, 11203
04/06/2020,21:50,86.06,86.11,85.99,86.11, 7943
04/06/2020,21:51,86.15,86.22,85.89,86.22, 9105
04/06/2020,21:51,86.16,86.37,86.15,86.34, 4225
04/06/2020,21:52,86.37,86.57,86.17,86.51, 9806
04/06/2020,21:52,86.58,86.58,86.29,86.35, 9477
04/06/2020,21:53,86.4,86.5,86.32,86.45, 12701
04/06/2020,21:53,86.46,86.55,86.37,86.43, 12827
04/06/2020,21:54,86.4,86.6,86.37,86.57, 11977
04/06/2020,21:55,86.56,86.62,86.53,86.57, 9610
04/06/2020,21:55,86.56,86.63,86.54,86.61, 7368
04/06/2020,21:55,86.63,86.73,86.61,86.67, 8642
04/06/2020,21:56,86.69,86.76,86.65,86.75, 11854
04/06/2020,21:56,86.75,86.87,86.68,86.84, 19467
04/06/2020,21:57,86.88,86.9,86.78,86.84, 22118
04/06/2020,21:58,86.86,86.88,86.7,86.7, 14194
04/06/2020,21:58,86.68,86.89,86.68,86.81, 19203
04/06/2020,21:59,86.84,86.84,86.39,86.55, 18839
04/06/2020,21:59,86.56,86.72,86.55,86.7, 17121
04/06/2020,22:00,86.69,86.71,86.63,86.63, 23609
04/06/2020,22:00,86.61,86.63,86.51,86.53, 18337
04/06/2020,22:00,86.55,86.6,86.54,86.55, 19417
04/06/2020,22:03,86.58,86.63,86.49,86.63, 806390
04/07/2020,15:31,89.09,89.09,89.09,89.09, 25009
04/07/2020,15:31,89.93,90,89.44,90, 700
04/07/2020,15:32,90,90.99,89.64,90.99, 3322
04/07/2020,15:33,89.71,89.71,89.71,89.71, 300
04/07/2020,15:36,89.79,90.23,89.77,90.23, 1250
04/07/2020,15:37,90.24,91,90.12,91, 4249
04/07/2020,15:37,90.87,90.9,90.72,90.72, 1800
04/07/2020,15:38,90.75,91.14,90.73,91.14, 900
04/07/2020,15:39,90.98,91.16,90.98,90.99, 300
04/07/2020,15:39,90.99,90.99,90.99,90.99, 200
04/07/2020,15:40,90.98,91.33,90.87,91.32, 2404
04/07/2020,15:40,91.22,91.44,91.22,91.44, 300
04/07/2020,15:41,91.28,91.4,90.98,91.08, 3614
04/07/2020,15:41,91.09,91.09,91.04,91.05, 500
04/07/2020,15:42,91,91.35,90.97,91.14, 7267
04/07/2020,15:42,91.19,91.23,91.05,91.15, 3400
04/07/2020,15:43,91.31,91.57,91.27,91.57, 3100
04/07/2020,15:44,91.51,91.65,91.45,91.65, 2300
04/07/2020,15:44,91.78,91.89,91.68,91.76, 3363
04/07/2020,15:45,91.75,91.77,91.44,91.66, 4700
04/07/2020,15:47,91.57,91.96,91.47,91.95, 4130
04/07/2020,15:47,91.87,91.87,91.87,91.87, 100
04/07/2020,15:48,92,92.02,91.85,91.91, 3950
04/07/2020,15:48,91.91,92.37,91.8,92.37, 2517
04/07/2020,15:49,92.47,92.54,92.33,92.33, 2439
04/07/2020,15:52,92.49,92.49,91.37,91.37, 2590
04/07/2020,15:53,91.58,91.7,91.56,91.7, 700
04/07/2020,15:53,91.79,92.02,91.79,92, 466
04/07/2020,15:54,91.93,92.1,91.93,92.09, 600
04/07/2020,15:55,92.11,92.34,92.11,92.33, 700
04/07/2020,15:55,92.33,92.54,92.18,92.54, 800
04/07/2020,15:56,92.52,92.58,92.5,92.58, 900
04/07/2020,15:56,92.7,92.7,92.2,92.26, 4532
04/07/2020,15:57,92.26,92.27,92.11,92.11, 1250
04/07/2020,15:58,92.45,92.45,92.41,92.41, 200
04/07/2020,15:58,92.45,92.75,92.45,92.63, 900
04/07/2020,15:59,92.37,92.62,92.37,92.62, 450
04/07/2020,16:00,92.76,92.9,92.73,92.78, 1300
04/07/2020,16:00,92.82,92.89,92.68,92.68, 2036
04/07/2020,16:01,92.83,92.83,92.49,92.49, 1375
04/07/2020,16:02,92.83,92.98,92.8,92.98, 1300
04/07/2020,16:02,93.05,93.05,92.87,92.87, 1408
04/07/2020,16:03,92.86,93.07,92.73,92.73, 5765
04/07/2020,16:04,92.72,92.72,92.62,92.68, 1410
04/07/2020,16:04,92.63,92.82,92.63,92.68, 2705
04/07/2020,16:04,92.68,92.8,92.65,92.77, 2663
04/07/2020,16:05,92.74,92.74,92.74,92.74, 122
04/07/2020,16:06,92.87,92.87,92.87,92.87, 200
04/07/2020,16:06,93.02,93.15,93.01,93.15, 1100
04/07/2020,16:07,93.06,93.28,93.01,93.01, 7582
04/07/2020,16:07,93.01,93.02,92.88,92.88, 1100
04/07/2020,16:08,92.9,92.9,92.72,92.72, 307
04/07/2020,16:08,92.71,92.71,92.55,92.55, 500
04/07/2020,16:09,92.6,92.61,92.53,92.53, 1600
04/07/2020,16:09,92.65,92.65,92.47,92.48, 402
04/07/2020,16:10,92.49,92.52,92.38,92.38, 800
04/07/2020,16:11,92.3,92.39,92.25,92.34, 1132
04/07/2020,16:11,92.39,92.62,92.39,92.58, 5650
04/07/2020,16:12,92.45,92.61,92.44,92.44, 1700
04/07/2020,16:12,92.44,92.58,92.42,92.46, 16378
04/07/2020,16:13,92.5,92.5,92.38,92.39, 1300
04/07/2020,16:13,92.29,92.29,92.14,92.14, 900
04/07/2020,16:14,92.25,92.34,92.25,92.34, 309
04/07/2020,16:15,92.14,92.14,92.06,92.14, 900
04/07/2020,16:15,92.07,92.08,91.92,91.93, 2400
04/07/2020,16:16,91.99,92.18,91.68,91.68, 4076
04/07/2020,16:17,91.66,91.99,91.56,91.84, 2400
04/07/2020,16:17,92.05,92.14,91.91,91.91, 3400
04/07/2020,16:18,91.86,92,91.82,91.94, 1683
04/07/2020,16:19,91.98,92.14,91.87,91.87, 1700
04/07/2020,16:19,91.94,91.95,91.85,91.93, 1370
04/07/2020,16:20,91.98,91.99,91.92,91.92, 500
04/07/2020,16:21,91.9,92.03,91.9,91.93, 1847
04/07/2020,16:21,92,92.19,92,92.19, 4400
04/07/2020,16:22,92.12,92.12,91.98,91.98, 4383
04/07/2020,16:23,91.98,91.98,91.98,91.98, 100
04/07/2020,16:23,91.92,91.99,91.9,91.99, 2404
04/07/2020,16:24,91.84,91.91,91.73,91.73, 1500
04/07/2020,16:25,91.73,92,91.73,92, 2020
04/07/2020,16:25,92.01,92.01,91.94,91.94, 500
04/07/2020,16:26,92,92.04,91.76,92.04, 3500
04/07/2020,16:27,92.12,92.12,92.12,92.12, 136
04/07/2020,16:29,92.05,92.37,92.05,92.16, 2497
04/07/2020,16:30,92.09,92.18,91.99,91.99, 2627
04/07/2020,16:31,92.04,92.1,92.04,92.1, 400
04/07/2020,16:32,92.11,92.44,92.11,92.39, 2369
04/07/2020,16:32,92.44,92.58,92.44,92.58, 706
04/07/2020,16:33,92.45,92.7,92.39,92.39, 3388
04/07/2020,16:34,92.43,92.54,92.33,92.47, 5270
04/07/2020,16:34,92.59,92.59,92.43,92.44, 3300
04/07/2020,16:35,92.41,92.54,92.41,92.54, 1096
04/07/2020,16:36,92.45,92.53,92.43,92.51, 1964
04/07/2020,16:37,92.62,92.71,92.59,92.64, 3647
04/07/2020,16:38,92.61,92.61,92.19,92.26, 6357
04/07/2020,16:38,92.2,92.49,92.2,92.49, 2925
04/07/2020,16:39,92.56,92.65,92.51,92.51, 1500
04/07/2020,16:40,92.44,92.44,92.06,92.13, 2619
04/07/2020,16:40,92.2,92.26,92.11,92.2, 2379
04/07/2020,16:41,92.17,92.19,92.17,92.19, 325
04/07/2020,16:42,92.16,92.16,92.07,92.07, 700
04/07/2020,16:42,92.22,92.22,91.96,91.96, 800
04/07/2020,16:43,92,92.43,92,92.43, 1530
04/07/2020,16:44,92.39,92.69,92.37,92.69, 2824
04/07/2020,16:44,92.69,92.9,92.58,92.59, 3500
04/07/2020,16:45,92.53,92.53,92.35,92.36, 700
04/07/2020,16:46,92.42,92.43,92.42,92.43, 867
04/07/2020,16:46,92.46,92.68,92.46,92.68, 500
04/07/2020,16:47,92.56,92.6,92.32,92.32, 2516
04/07/2020,16:49,92.37,92.54,92.21,92.35, 7324
04/07/2020,16:49,92.31,92.31,92,92, 1800
04/07/2020,16:50,92,92,91.87,91.87, 1400
04/07/2020,16:51,91.74,91.85,91.66,91.78, 5064
04/07/2020,16:56,91.73,91.73,91.43,91.6, 3637
04/07/2020,16:56,91.61,91.66,91.53,91.64, 5383
04/07/2020,16:58,91.72,91.83,91.62,91.68, 1009
04/07/2020,16:59,91.59,91.8,91.58,91.78, 5893
04/07/2020,17:00,91.78,91.87,91.72,91.72, 3200
04/07/2020,17:01,91.71,91.76,91.61,91.76, 6258
04/07/2020,17:02,91.68,91.84,91.61,91.78, 1719
04/07/2020,17:03,91.7,91.92,91.65,91.92, 2700
04/07/2020,17:04,91.84,91.85,91.69,91.8, 3100
04/07/2020,17:06,91.79,92.15,91.62,92.11, 9093
04/07/2020,17:07,92.11,92.25,92.03,92.03, 2709
04/07/2020,17:08,92.06,92.11,91.97,92.05, 2400
04/07/2020,17:09,92.09,92.11,92.09,92.09, 300
04/07/2020,17:10,92.08,92.17,92.04,92.17, 1200
04/07/2020,17:12,92.2,92.21,91.95,92, 4665
04/07/2020,17:13,91.97,92.1,91.96,92.02, 5751
04/07/2020,17:14,92.08,92.1,91.96,92.1, 2891
04/07/2020,17:15,92.12,92.15,92.12,92.15, 378
04/07/2020,17:16,92.11,92.15,91.96,92.1, 3351
04/07/2020,17:17,92.2,92.2,92.16,92.16, 200
04/07/2020,17:18,92.13,92.13,92.02,92.04, 1527
04/07/2020,17:19,92.04,92.04,91.93,91.99, 2083
04/07/2020,17:21,92,92,91.87,91.98, 2378
04/07/2020,17:22,91.91,92.04,91.9,92.04, 1100
04/07/2020,17:23,92.04,92.06,91.84,91.84, 1871
04/07/2020,17:25,91.88,91.89,91.68,91.68, 2256
04/07/2020,17:25,91.68,91.75,91.68,91.75, 200
04/07/2020,17:26,91.82,91.82,91.7,91.78, 1725
04/07/2020,17:28,91.75,91.78,91.61,91.73, 2905
04/07/2020,17:29,91.85,91.92,91.81,91.92, 2939
04/07/2020,17:30,91.96,92.04,91.94,91.95, 1774
04/07/2020,17:31,92.01,92.04,92.01,92.04, 525
04/07/2020,17:32,92.02,92.06,91.92,91.98, 2537
04/07/2020,17:33,92.02,92.36,92.01,92.33, 6465
04/07/2020,17:36,92.36,92.36,92.05,92.05, 2804
04/07/2020,17:37,92.06,92.12,92.02,92.02, 1500
04/07/2020,17:38,92.08,92.17,92.08,92.17, 900
04/07/2020,17:40,92.14,92.24,92.11,92.21, 1894
04/07/2020,17:41,92.24,92.31,92.15,92.15, 2158
04/07/2020,17:44,92.17,92.53,92.17,92.44, 1195
04/07/2020,17:45,92.4,92.46,92.4,92.4, 701
04/07/2020,17:47,92.36,92.39,92.21,92.22, 5049
04/07/2020,17:49,92.29,92.43,92.29,92.3, 2554
04/07/2020,17:51,92.28,92.28,92.14,92.17, 2354
04/07/2020,17:52,92.14,92.16,92.05,92.11, 1531
04/07/2020,17:54,92.16,92.16,92,92.05, 2426
04/07/2020,17:56,92.02,92.43,92.02,92.36, 8034
04/07/2020,17:58,92.36,92.5,92.35,92.39, 2863
04/07/2020,18:00,92.34,92.38,92.07,92.07, 3505
04/07/2020,18:02,92.07,92.31,92.06,92.31, 3531
04/07/2020,18:03,92.26,92.42,92.25,92.42, 2664
04/07/2020,18:05,92.43,92.66,92.41,92.66, 809
04/07/2020,18:06,92.65,92.75,92.65,92.7, 1921
04/07/2020,18:08,92.78,92.78,92.66,92.74, 1847
04/07/2020,18:10,92.77,92.95,92.77,92.95, 54998
04/07/2020,18:12,92.92,92.98,92.78,92.83, 5358
04/07/2020,18:14,92.86,92.97,92.78,92.78, 1217
04/07/2020,18:15,92.79,92.83,92.55,92.75, 8088
04/07/2020,18:17,92.75,92.86,92.71,92.83, 14715
04/07/2020,18:19,92.84,92.93,92.77,92.93, 4872
04/07/2020,18:23,92.96,93.12,92.88,92.91, 3912
04/07/2020,18:25,92.91,92.95,92.8,92.83, 4765
04/07/2020,18:27,92.87,92.91,92.68,92.68, 3666
04/07/2020,18:28,92.71,92.75,92.66,92.66, 613
04/07/2020,18:29,92.71,92.75,92.71,92.71, 1300
04/07/2020,18:30,92.76,92.76,92.63,92.74, 2286
04/07/2020,18:31,92.78,92.82,92.77,92.78, 609
04/07/2020,18:32,92.81,92.81,92.63,92.73, 800
04/07/2020,18:33,92.68,92.68,92.62,92.62, 200
04/07/2020,18:34,92.68,92.68,92.56,92.56, 1500
04/07/2020,18:34,92.56,92.56,92.56,92.56, 300
04/07/2020,18:36,92.5,92.56,92.42,92.48, 600
04/07/2020,18:37,92.43,92.51,92.42,92.42, 1908
04/07/2020,18:38,92.45,92.6,92.45,92.6, 3007
04/07/2020,18:39,92.63,92.72,92.59,92.69, 1900
04/07/2020,18:40,92.66,92.69,92.59,92.63, 3245
04/07/2020,18:41,92.59,92.59,92.46,92.52, 1430
04/07/2020,18:42,92.51,92.51,92.51,92.51, 200
04/07/2020,18:43,92.52,92.52,92.44,92.46, 900
04/07/2020,18:44,92.49,92.79,92.48,92.73, 3595
04/07/2020,18:45,92.73,92.73,92.7,92.72, 1100
04/07/2020,18:46,92.75,92.79,92.57,92.7, 14011
04/07/2020,18:47,92.61,92.78,92.61,92.71, 1402
04/07/2020,18:48,92.73,92.74,92.73,92.74, 393
04/07/2020,18:49,92.78,92.78,92.65,92.74, 1498
04/07/2020,18:49,92.8,92.83,92.8,92.83, 500
04/07/2020,18:51,92.75,92.78,92.68,92.69, 1711
04/07/2020,18:52,92.69,92.69,92.6,92.6, 915
04/07/2020,18:53,92.62,92.66,92.61,92.66, 508
04/07/2020,18:54,92.63,92.63,92.53,92.57, 1809
04/07/2020,18:55,92.53,92.73,92.53,92.64, 3606
04/07/2020,18:56,92.57,92.82,92.57,92.82, 1800
04/07/2020,18:57,92.75,92.83,92.71,92.83, 1799
04/07/2020,18:58,92.81,92.92,92.81,92.92, 700
04/07/2020,18:59,92.91,92.96,92.84,92.85, 1232
04/07/2020,19:00,92.88,92.89,92.8,92.82, 1278
04/07/2020,19:01,92.77,92.94,92.77,92.94, 2225
04/07/2020,19:02,92.89,92.89,92.85,92.86, 500
04/07/2020,19:03,92.84,92.92,92.81,92.92, 1000
04/07/2020,19:04,92.89,92.93,92.8,92.85, 1800
04/07/2020,19:06,92.9,92.94,92.86,92.9, 2131
04/07/2020,19:07,92.9,93.04,92.9,93.04, 635
04/07/2020,19:08,93.06,93.1,93.01,93.01, 1448
04/07/2020,19:09,93.06,93.06,92.98,93.04, 1807
04/07/2020,19:10,93.03,93.03,92.84,92.84, 3096
04/07/2020,19:11,92.88,92.93,92.83,92.86, 3374
04/07/2020,19:12,92.82,92.82,92.74,92.74, 800
04/07/2020,19:13,92.68,92.8,92.68,92.8, 663
04/07/2020,19:14,92.84,92.84,92.79,92.82, 2069
04/07/2020,19:15,92.88,93,92.88,93, 1120
04/07/2020,19:16,92.92,92.94,92.85,92.88, 836
04/07/2020,19:17,92.86,92.86,92.84,92.85, 600
04/07/2020,19:18,92.86,92.89,92.81,92.81, 2500
04/07/2020,19:19,92.82,92.83,92.78,92.83, 2346
04/07/2020,19:20,92.78,92.8,92.64,92.65, 1794
04/07/2020,19:21,92.69,92.73,92.66,92.66, 1107
04/07/2020,19:22,92.65,92.7,92.58,92.7, 700
04/07/2020,19:23,92.73,92.82,92.72,92.82, 1400
04/07/2020,19:24,92.82,92.84,92.75,92.83, 3558
04/07/2020,19:25,92.84,92.9,92.74,92.85, 2491
04/07/2020,19:26,92.81,92.9,92.81,92.9, 1000
04/07/2020,19:27,92.88,93,92.87,92.88, 2932
04/07/2020,19:28,92.89,93.03,92.89,93.03, 1859
04/07/2020,19:29,93,93.01,92.92,92.93, 1900
04/07/2020,19:30,92.93,93.1,92.93,93.06, 3667
04/07/2020,19:31,93.11,93.12,92.99,92.99, 3058
04/07/2020,19:32,93.02,93.02,92.98,93, 509
04/07/2020,19:33,93.01,93.11,92.94,93.11, 1200
04/07/2020,19:34,93.1,93.1,93,93, 1829
04/07/2020,19:35,92.97,93,92.91,92.96, 1350
04/07/2020,19:36,92.96,93,92.92,92.92, 1489
04/07/2020,19:37,92.92,92.92,92.8,92.88, 2000
04/07/2020,19:38,92.88,92.96,92.88,92.96, 3015
04/07/2020,19:39,92.95,92.95,92.85,92.85, 2264
04/07/2020,19:40,92.88,92.92,92.88,92.88, 2324
04/07/2020,19:41,92.89,92.89,92.66,92.66, 2640
04/07/2020,19:42,92.61,92.8,92.58,92.8, 2683
04/07/2020,19:43,92.82,92.91,92.82,92.91, 720
04/07/2020,19:44,92.95,92.95,92.87,92.88, 483
04/07/2020,19:45,92.85,92.87,92.76,92.76, 2850
04/07/2020,19:46,92.65,92.72,92.44,92.55, 10435
04/07/2020,19:47,92.56,92.59,92.49,92.55, 2400
04/07/2020,19:48,92.51,92.62,92.5,92.62, 1520
04/07/2020,19:49,92.56,92.63,92.48,92.48, 3190
04/07/2020,19:50,92.48,92.49,92.27,92.27, 1600
04/07/2020,19:51,92.21,92.23,92,92, 1000
04/07/2020,19:52,91.97,92.12,91.96,92.12, 1700
04/07/2020,19:53,92.17,92.18,92.11,92.18, 1099
04/07/2020,19:54,92.2,92.2,91.99,92.12, 3685
04/07/2020,19:55,92.07,92.28,92.07,92.27, 1446
04/07/2020,19:56,92.22,92.24,92.21,92.23, 1074
04/07/2020,19:57,92.23,92.23,92.13,92.19, 4778
04/07/2020,19:58,92.21,92.24,92.21,92.24, 302
04/07/2020,19:59,92.19,92.19,92.13,92.19, 1200
04/07/2020,20:00,92.18,92.24,92.18,92.24, 909
04/07/2020,20:01,92.23,92.24,92.13,92.17, 4294
04/07/2020,20:02,92.19,92.19,92.13,92.19, 1293
04/07/2020,20:03,92.2,92.24,92.18,92.2, 1344
04/07/2020,20:04,92.2,92.2,92.13,92.17, 2209
04/07/2020,20:05,92.15,92.18,92.13,92.16, 3652
04/07/2020,20:06,92.15,92.19,92.07,92.07, 17059
04/07/2020,20:07,92.04,92.06,91.87,91.97, 4000
04/07/2020,20:08,91.97,91.97,91.89,91.89, 1600
04/07/2020,20:09,91.88,92.01,91.88,91.98, 23387
04/07/2020,20:10,91.95,92.01,91.89,91.95, 3175
04/07/2020,20:11,92.03,92.07,92.01,92.05, 3521
04/07/2020,20:12,92.05,92.2,92.05,92.07, 5601
04/07/2020,20:13,92,92.01,91.95,92.01, 895
04/07/2020,20:14,92,92.03,92,92.02, 500
04/07/2020,20:15,92.06,92.06,91.79,91.82, 1817
04/07/2020,20:16,91.8,91.81,91.76,91.81, 1960
04/07/2020,20:17,91.76,91.84,91.76,91.77, 923
04/07/2020,20:18,91.72,91.72,91.58,91.6, 1117
04/07/2020,20:19,91.61,91.67,91.61,91.62, 600
04/07/2020,20:20,91.63,91.63,91.43,91.44, 1630
04/07/2020,20:21,91.35,91.37,91.17,91.17, 1500
04/07/2020,20:22,91.22,91.41,91.17,91.34, 1700
04/07/2020,20:23,91.46,91.58,91.45,91.58, 1100
04/07/2020,20:24,91.61,91.74,91.5,91.74, 1300
04/07/2020,20:25,91.76,91.76,91.65,91.65, 646
04/07/2020,20:26,91.64,91.67,91.58,91.65, 2624
04/07/2020,20:27,91.65,91.73,91.63,91.69, 1595
04/07/2020,20:28,91.72,91.79,91.67,91.67, 1145
04/07/2020,20:29,91.74,91.88,91.7,91.8, 4209
04/07/2020,20:30,91.76,91.79,91.59,91.73, 1400
04/07/2020,20:31,91.65,91.69,91.49,91.57, 1100
04/07/2020,20:32,91.6,91.85,91.6,91.72, 2100
04/07/2020,20:33,91.77,91.77,91.67,91.72, 600
04/07/2020,20:34,91.72,91.72,91.57,91.57, 500
04/07/2020,20:35,91.6,91.7,91.59,91.7, 1509
04/07/2020,20:36,91.68,91.68,91.47,91.47, 1922
04/07/2020,20:37,91.45,91.49,91.45,91.47, 1506
04/07/2020,20:38,91.44,91.52,91.43,91.51, 1000
04/07/2020,20:39,91.52,91.52,91.51,91.51, 400
04/07/2020,20:40,91.49,91.49,91.37,91.37, 2680
04/07/2020,20:41,91.37,91.42,91.35,91.4, 2051
04/07/2020,20:42,91.37,91.4,91.25,91.25, 1732
04/07/2020,20:43,91.24,91.33,91.24,91.27, 1700
04/07/2020,20:44,91.27,91.33,91.25,91.27, 2000
04/07/2020,20:45,91.27,91.27,91.19,91.24, 5700
04/07/2020,20:46,91.25,91.4,91.21,91.39, 4845
04/07/2020,20:47,91.43,91.5,91.38,91.45, 2201
04/07/2020,20:48,91.43,91.52,91.4,91.49, 2314
04/07/2020,20:49,91.44,91.44,91.27,91.3, 3000
04/07/2020,20:50,91.33,91.34,91.29,91.32, 2488
04/07/2020,20:51,91.34,91.34,91.23,91.24, 2757
04/07/2020,20:52,91.29,91.3,91.17,91.17, 3292
04/07/2020,20:53,91.21,91.26,91.16,91.26, 1689
04/07/2020,20:54,91.25,91.25,91.05,91.05, 1600
04/07/2020,20:55,91.04,91.11,90.93,91.1, 10849
04/07/2020,20:56,91.12,91.15,90.89,90.91, 3175
04/07/2020,20:57,90.86,91,90.8,90.99, 4247
04/07/2020,20:58,91.01,91.09,90.99,91.03, 1410
04/07/2020,20:59,90.99,91.04,90.98,91.01, 1100
04/07/2020,21:00,91,91.04,90.93,91.04, 2487
04/07/2020,21:01,91.02,91.12,90.96,91.11, 6877
04/07/2020,21:02,91.14,91.26,91.12,91.26, 3605
04/07/2020,21:03,91.22,91.31,91.12,91.31, 4100
04/07/2020,21:04,91.31,91.4,91.24,91.26, 4068
04/07/2020,21:05,91.31,91.33,91.26,91.32, 1650
04/07/2020,21:06,91.36,91.38,91.22,91.36, 2010
04/07/2020,21:07,91.36,91.39,91.28,91.28, 2344
04/07/2020,21:08,91.28,91.28,91.11,91.11, 2900
04/07/2020,21:09,91.11,91.19,91.08,91.14, 5221
04/07/2020,21:10,91.15,91.44,91.11,91.39, 3753
04/07/2020,21:11,91.35,91.61,91.32,91.61, 1719
04/07/2020,21:12,91.59,91.61,91.47,91.48, 1940
04/07/2020,21:13,91.48,91.51,91.37,91.49, 2610
04/07/2020,21:14,91.52,91.55,91.51,91.51, 1804
04/07/2020,21:15,91.53,91.61,91.53,91.59, 701
04/07/2020,21:16,91.56,91.57,91.42,91.45, 4377
04/07/2020,21:17,91.44,91.45,91.24,91.24, 5685
04/07/2020,21:18,91.21,91.25,91.16,91.2, 2700
04/07/2020,21:19,91.21,91.21,90.91,90.93, 2146
04/07/2020,21:20,90.93,90.93,90.6,90.68, 4361
04/07/2020,21:21,90.68,90.68,90.63,90.68, 2922
04/07/2020,21:22,90.71,90.83,90.65,90.71, 10829
04/07/2020,21:23,90.65,90.81,90.64,90.8, 1900
04/07/2020,21:24,90.89,90.95,90.66,90.69, 7367
04/07/2020,21:25,90.76,90.81,90.72,90.78, 13534
04/07/2020,21:26,90.81,90.86,90.64,90.86, 10783
04/07/2020,21:27,90.82,91.03,90.8,91.03, 6096
04/07/2020,21:28,91.03,91.06,90.99,91.01, 2965
04/07/2020,21:29,90.98,91.05,90.94,90.98, 3201
04/07/2020,21:30,90.99,91.03,90.88,90.88, 5422
04/07/2020,21:31,90.84,90.96,90.82,90.88, 6420
04/07/2020,21:32,90.88,91.3,90.88,91.23, 6074
04/07/2020,21:33,91.25,91.25,91.05,91.05, 6330
04/07/2020,21:34,91.06,91.11,90.79,91.11, 3825
04/07/2020,21:35,91.08,91.37,91.07,91.27, 3202
04/07/2020,21:36,91.27,91.49,91.27,91.41, 6133
04/07/2020,21:37,91.35,91.35,91.18,91.24, 2900
04/07/2020,21:38,91.31,91.38,91.18,91.2, 4343
04/07/2020,21:39,91.19,91.34,91.16,91.16, 5200
04/07/2020,21:40,91.13,91.42,91.04,91.37, 7440
04/07/2020,21:41,91.34,91.54,91.34,91.48, 4744
04/07/2020,21:42,91.42,91.67,91.4,91.67, 3663
04/07/2020,21:43,91.64,91.84,91.61,91.84, 7588
04/07/2020,21:44,91.86,91.87,91.71,91.75, 7008
04/07/2020,21:45,91.71,91.71,91.57,91.62, 4775
04/07/2020,21:46,91.63,91.72,91.6,91.65, 3540
04/07/2020,21:47,91.62,91.94,91.62,91.81, 6515
04/07/2020,21:48,91.84,91.94,91.78,91.83, 11005
04/07/2020,21:48,91.89,91.97,91.82,91.97, 5650
04/07/2020,21:49,91.93,92.14,91.93,92.05, 6207
04/07/2020,21:50,92.05,92.06,91.93,92.03, 7257
04/07/2020,21:51,92.02,93.11,92.02,92.77, 14801
04/07/2020,21:51,92.7,92.83,91.92,92, 9878
04/07/2020,21:52,91.96,92.2,91.7,92.2, 8148
04/07/2020,21:53,92.12,92.2,91.77,91.82, 14952
04/07/2020,21:53,91.76,91.96,91.76,91.92, 9210
04/07/2020,21:54,91.88,91.92,91.67,91.69, 15310
04/07/2020,21:55,91.7,91.7,91.4,91.5, 16086
04/07/2020,21:55,91.5,91.73,91.42,91.68, 16949
04/07/2020,21:56,91.73,91.78,91.45,91.69, 21646
04/07/2020,21:57,91.69,91.71,91.52,91.52, 19700
04/07/2020,21:58,91.54,91.56,91.18,91.21, 25229
04/07/2020,21:59,91.21,91.25,91.01,91.16, 22855
04/07/2020,21:59,91.19,91.19,90.95,91.01, 18012
04/07/2020,22:00,90.99,91.25,90.99,91.24, 12631
04/07/2020,22:00,91.24,91.24,91.09,91.09, 15220
04/07/2020,22:01,91.08,91.16,91,91.03, 20868
04/07/2020,22:03,91.09,91.09,91.09,91.09, 253557
04/08/2020,15:31,91.41,91.41,91.3,91.3, 200
04/08/2020,15:32,92.19,92.19,91.42,91.42, 380
04/08/2020,15:33,92.83,92.83,92.83,92.83, 100
04/08/2020,15:35,92.01,92.47,92,92, 1872
04/08/2020,15:36,92.02,92.39,91.57,92.35, 1631
04/08/2020,15:37,91.61,91.95,91.57,91.8, 4069
04/08/2020,15:38,91.74,91.74,91.74,91.74, 200
04/08/2020,15:41,92.19,92.52,92.05,92.52, 2391
04/08/2020,15:42,92.33,92.33,92.15,92.32, 800
04/08/2020,15:42,92.17,92.34,91.89,92.22, 5280
04/08/2020,15:43,92.17,92.6,92.17,92.3, 1670
04/08/2020,15:44,92.44,92.44,92.11,92.14, 5500
04/08/2020,15:45,92.1,92.11,92.1,92.11, 400
04/08/2020,15:46,92.17,92.29,92.17,92.23, 2201
04/08/2020,15:46,92.2,92.31,92.15,92.27, 800
04/08/2020,15:47,92.16,92.16,92.02,92.02, 1000
04/08/2020,15:48,92.07,92.07,91.85,92.01, 1500
04/08/2020,15:49,92.09,92.11,91.93,91.95, 1686
04/08/2020,15:50,91.93,92.01,91.7,91.71, 1100
04/08/2020,15:51,91.72,91.73,91.7,91.7, 400
04/08/2020,15:51,91.7,91.77,91.56,91.69, 1320
04/08/2020,15:52,91.43,91.7,91.41,91.69, 2703
04/08/2020,15:52,91.75,91.75,91.67,91.67, 500
04/08/2020,15:53,91.83,91.95,91.74,91.8, 2000
04/08/2020,15:54,91.77,91.77,91.47,91.7, 1400
04/08/2020,15:55,91.77,91.82,91.68,91.7, 1955
04/08/2020,15:56,91.69,92.1,91.67,91.96, 12399
04/08/2020,15:57,92.03,92.08,92.02,92.02, 1234
04/08/2020,15:59,92.11,92.11,91.7,92, 3979
04/08/2020,16:00,91.89,91.99,91.69,91.79, 2686
04/08/2020,16:01,91.81,92.13,91.73,91.74, 18713
04/08/2020,16:02,91.74,91.74,91.51,91.51, 1100
04/08/2020,16:03,91.64,91.74,91.57,91.74, 999
04/08/2020,16:04,91.64,91.64,91.27,91.39, 3940
04/08/2020,16:06,91.31,91.42,91.31,91.32, 800
04/08/2020,16:07,91.4,91.53,91.07,91.45, 5373
04/08/2020,16:08,91.42,91.51,91.25,91.25, 1027
04/08/2020,16:09,91.21,91.34,91.08,91.25, 5488
04/08/2020,16:10,91.25,91.29,91.09,91.09, 2297
04/08/2020,16:11,91.17,91.35,91.17,91.33, 998
04/08/2020,16:12,91.24,91.56,91.24,91.5, 2346
04/08/2020,16:13,91.49,91.5,91.43,91.43, 800
04/08/2020,16:14,91.45,91.45,91.35,91.45, 900
04/08/2020,16:16,91.52,91.52,91.41,91.41, 1000
04/08/2020,16:17,91.42,91.46,91.25,91.46, 1000
04/08/2020,16:17,91.46,91.46,91.46,91.46, 100
04/08/2020,16:18,91.48,91.58,91.48,91.58, 300
04/08/2020,16:20,91.53,91.75,91.53,91.63, 900
04/08/2020,16:21,91.72,91.8,91.65,91.73, 1100
04/08/2020,16:22,91.78,91.78,91.57,91.66, 2670
04/08/2020,16:23,91.67,91.88,91.67,91.85, 1300
04/08/2020,16:25,91.87,91.87,91.5,91.64, 4087
04/08/2020,16:25,91.71,91.73,91.69,91.72, 1369
04/08/2020,16:27,91.72,91.78,91.72,91.73, 800
04/08/2020,16:28,91.78,92.06,91.77,92.06, 1508
04/08/2020,16:29,92.08,92.08,91.93,91.93, 500
04/08/2020,16:29,91.93,92.1,91.91,91.99, 1827
04/08/2020,16:31,92.06,92.1,92.06,92.1, 487
04/08/2020,16:31,91.96,92.01,91.96,92.01, 300
04/08/2020,16:33,92.05,92.12,92.04,92.12, 400
04/08/2020,16:34,92.26,92.28,92.17,92.23, 1343
04/08/2020,16:35,92.16,92.16,91.99,91.99, 1100
04/08/2020,16:36,92.07,92.13,92,92.11, 1000
04/08/2020,16:37,92.02,92.05,91.88,91.99, 700
04/08/2020,16:38,91.95,91.98,91.94,91.95, 693
04/08/2020,16:39,91.99,92.07,91.99,92.07, 1600
04/08/2020,16:40,92.07,92.07,91.94,92.04, 1265
04/08/2020,16:41,92.02,92.25,92.01,92.09, 2133
04/08/2020,16:42,92.15,92.21,92.14,92.14, 500
04/08/2020,16:43,92.13,92.19,91.92,91.92, 1600
04/08/2020,16:44,91.92,92.02,91.91,91.98, 1200
04/08/2020,16:45,91.95,92.03,91.95,91.97, 400
04/08/2020,16:46,91.98,92.14,91.98,92.04, 1200
04/08/2020,16:47,92.14,92.14,92.08,92.12, 1300
04/08/2020,16:48,92.12,92.17,92.07,92.14, 1001
04/08/2020,16:49,92.09,92.12,91.98,92.01, 1400
04/08/2020,16:50,92.11,92.11,92.1,92.11, 300
04/08/2020,16:51,92.03,92.2,91.96,92.2, 1594
04/08/2020,16:52,92.16,92.28,92.16,92.23, 3664
04/08/2020,16:53,92.23,92.27,92.13,92.13, 905
04/08/2020,16:54,92.06,92.17,92.04,92.17, 600
04/08/2020,16:55,92.17,92.31,92.13,92.19, 1347
04/08/2020,16:56,92.15,92.21,92.09,92.17, 1400
04/08/2020,16:57,92.21,92.23,92.19,92.22, 500
04/08/2020,16:58,92.21,92.21,92.05,92.05, 801
04/08/2020,16:59,92.03,92.31,92.03,92.25, 3810
04/08/2020,17:00,92.3,92.38,92.22,92.26, 5410
04/08/2020,17:01,92.24,92.35,92.2,92.2, 3818
04/08/2020,17:02,92.13,92.17,91.97,92.16, 800
04/08/2020,17:03,92.13,92.18,92.09,92.18, 492
04/08/2020,17:04,92.17,92.17,91.94,91.99, 4401
04/08/2020,17:05,92,92.02,91.94,91.94, 1045
04/08/2020,17:06,91.98,92.12,91.94,92.12, 2200
04/08/2020,17:07,92.16,92.2,91.96,91.96, 1600
04/08/2020,17:08,92.07,92.07,91.95,92.03, 417
04/08/2020,17:09,92,92.1,91.94,92.09, 2098
04/08/2020,17:10,92.1,92.26,92.07,92.21, 1900
04/08/2020,17:11,92.2,92.2,92.07,92.11, 2300
04/08/2020,17:12,92.1,92.15,92.1,92.14, 400
04/08/2020,17:13,92.32,92.32,92.11,92.2, 901
04/08/2020,17:13,92.14,92.17,92.1,92.1, 500
04/08/2020,17:15,92.21,92.33,92.19,92.24, 2700
04/08/2020,17:16,92.33,92.33,92.17,92.17, 2830
04/08/2020,17:17,92.19,92.31,92.19,92.23, 500
04/08/2020,17:18,92.27,92.4,92.26,92.33, 2100
04/08/2020,17:19,92.36,92.36,92.23,92.36, 1300
04/08/2020,17:20,92.42,92.45,92.37,92.41, 704
04/08/2020,17:21,92.46,92.48,92.28,92.35, 4130
04/08/2020,17:21,92.43,92.56,92.43,92.56, 1100
04/08/2020,17:23,92.48,92.53,92.34,92.37, 3300
04/08/2020,17:24,92.43,92.51,92.41,92.46, 2535
04/08/2020,17:25,92.49,92.49,92.39,92.39, 1500
04/08/2020,17:26,92.42,92.42,92.3,92.33, 1879
04/08/2020,17:27,92.4,92.54,92.38,92.54, 2427
04/08/2020,17:28,92.55,92.55,92.47,92.47, 735
04/08/2020,17:29,92.47,92.47,92.41,92.44, 1265
04/08/2020,17:30,92.37,92.42,92.34,92.35, 1902
04/08/2020,17:31,92.36,92.44,92.33,92.44, 2081
04/08/2020,17:32,92.46,92.46,92.32,92.32, 6457
04/08/2020,17:33,92.36,92.45,92.26,92.32, 3278
04/08/2020,17:34,92.39,92.39,92.35,92.36, 840
04/08/2020,17:35,92.42,92.55,92.4,92.51, 1203
04/08/2020,17:36,92.49,92.53,92.46,92.47, 950
04/08/2020,17:37,92.47,92.57,92.46,92.54, 3009
04/08/2020,17:38,92.56,92.56,92.47,92.5, 3706
04/08/2020,17:39,92.51,92.59,92.48,92.56, 5630
04/08/2020,17:40,92.54,92.64,92.54,92.64, 5001
04/08/2020,17:41,92.66,92.78,92.66,92.74, 1200
04/08/2020,17:42,92.71,92.91,92.7,92.89, 5255
04/08/2020,17:43,92.89,93.09,92.84,93.09, 3800
04/08/2020,17:44,93.04,93.08,93.03,93.08, 1100
04/08/2020,17:45,93.07,93.1,93.05,93.08, 1599
04/08/2020,17:46,93.09,93.33,93.04,93.33, 4700
04/08/2020,17:47,93.33,93.55,93.31,93.55, 9810
04/08/2020,17:48,93.55,93.63,93.43,93.49, 4000
04/08/2020,17:49,93.38,93.38,93.24,93.34, 1000
04/08/2020,17:50,93.27,93.38,93.27,93.33, 1500
04/08/2020,17:51,93.27,93.27,92.98,93.06, 2302
04/08/2020,17:52,93,93.08,92.91,92.95, 750
04/08/2020,17:53,93.01,93.22,92.95,93.12, 3763
04/08/2020,17:54,93.06,93.08,93.03,93.03, 1651
04/08/2020,17:55,93.03,93.09,93.02,93.07, 2800
04/08/2020,17:56,93.1,93.17,93.06,93.08, 2571
04/08/2020,17:57,93.1,93.2,93.07,93.2, 1300
04/08/2020,17:58,93.15,93.32,93.15,93.19, 3801
04/08/2020,17:59,93.11,93.11,92.98,92.98, 1304
04/08/2020,18:00,92.92,93,92.92,92.99, 1676
04/08/2020,18:01,92.94,92.95,92.83,92.89, 1800
04/08/2020,18:02,92.91,92.96,92.85,92.89, 4155
04/08/2020,18:03,92.94,92.97,92.77,92.77, 1270
04/08/2020,18:04,92.81,92.91,92.78,92.87, 1000
04/08/2020,18:05,92.91,93.04,92.91,92.98, 1300
04/08/2020,18:06,92.98,93,92.75,92.75, 3400
04/08/2020,18:07,92.8,92.8,92.64,92.64, 2400
04/08/2020,18:08,92.69,92.81,92.69,92.75, 1602
04/08/2020,18:09,92.83,92.83,92.74,92.74, 1500
04/08/2020,18:10,92.74,92.74,92.53,92.53, 700
04/08/2020,18:11,92.52,92.59,92.41,92.5, 1300
04/08/2020,18:12,92.45,92.54,92.37,92.54, 2691
04/08/2020,18:13,92.53,92.6,92.53,92.6, 600
04/08/2020,18:14,92.61,92.69,92.55,92.69, 536
04/08/2020,18:15,92.64,92.67,92.58,92.58, 1090
04/08/2020,18:16,92.64,92.68,92.5,92.64, 3560
04/08/2020,18:17,92.55,92.68,92.55,92.61, 700
04/08/2020,18:18,92.79,92.8,92.69,92.79, 3204
04/08/2020,18:19,92.81,93.03,92.81,93.03, 8926
04/08/2020,18:20,92.98,93.04,92.98,93, 800
04/08/2020,18:21,93.04,93.04,92.9,92.94, 2350
04/08/2020,18:21,92.91,92.98,92.91,92.98, 600
04/08/2020,18:23,92.97,93.04,92.97,92.99, 1606
04/08/2020,18:24,92.99,93.07,92.93,93, 1064
04/08/2020,18:25,92.93,92.93,92.93,92.93, 100
04/08/2020,18:26,92.97,92.99,92.9,92.9, 3332
04/08/2020,18:27,92.9,92.96,92.9,92.96, 850
04/08/2020,18:28,92.88,92.93,92.84,92.87, 2081
04/08/2020,18:29,92.87,92.96,92.83,92.91, 900
04/08/2020,18:30,92.83,92.85,92.7,92.82, 3050
04/08/2020,18:31,92.79,92.86,92.76,92.82, 1401
04/08/2020,18:32,92.88,92.91,92.8,92.8, 4666
04/08/2020,18:33,92.75,92.85,92.74,92.81, 1004
04/08/2020,18:34,92.84,92.91,92.84,92.91, 400
04/08/2020,18:35,92.91,93.06,92.86,93.01, 3404
04/08/2020,18:36,93.04,93.13,93.04,93.09, 1867
04/08/2020,18:37,93.12,93.12,92.84,92.96, 5230
04/08/2020,18:38,92.95,93.05,92.88,92.93, 10686
04/08/2020,18:39,92.91,92.92,92.82,92.88, 2995
04/08/2020,18:40,92.82,93.08,92.8,93.05, 5900
04/08/2020,18:41,93.08,93.15,93.02,93.06, 1823
04/08/2020,18:41,93.01,93.13,93.01,93.1, 700
04/08/2020,18:43,93.13,93.2,93.13,93.18, 1100
04/08/2020,18:44,93.15,93.17,93.07,93.1, 2639
04/08/2020,18:45,93.1,93.13,93.08,93.1, 1700
04/08/2020,18:46,93.12,93.17,93.06,93.1, 2207
04/08/2020,18:47,93.05,93.1,93.05,93.09, 300
04/08/2020,18:48,93.13,93.19,93.13,93.19, 600
04/08/2020,18:49,93.21,93.22,93.15,93.16, 2121
04/08/2020,18:50,93.15,93.2,93.1,93.13, 3201
04/08/2020,18:50,93.11,93.11,93.04,93.04, 1100
04/08/2020,18:52,93.04,93.11,92.99,93.03, 1000
04/08/2020,18:53,93.05,93.13,93.04,93.04, 835
04/08/2020,18:54,93,93.05,92.96,92.98, 2586
04/08/2020,18:55,93.01,93.01,92.76,92.86, 1969
04/08/2020,18:56,92.85,92.85,92.74,92.76, 700
04/08/2020,18:57,92.74,92.74,92.61,92.64, 600
04/08/2020,18:58,92.7,92.8,92.63,92.8, 2606
04/08/2020,18:59,92.8,92.84,92.79,92.81, 1600
04/08/2020,19:00,92.79,92.79,92.69,92.79, 1988
04/08/2020,19:01,92.73,92.78,92.69,92.69, 600
04/08/2020,19:02,92.69,92.69,92.58,92.64, 1800
04/08/2020,19:03,92.66,92.74,92.66,92.73, 804
04/08/2020,19:04,92.74,92.79,92.55,92.55, 2632
04/08/2020,19:05,92.57,92.76,92.56,92.66, 1400
04/08/2020,19:06,92.71,92.71,92.6,92.6, 1056
04/08/2020,19:07,92.66,92.78,92.66,92.78, 600
04/08/2020,19:08,92.8,92.87,92.78,92.87, 1166
04/08/2020,19:09,92.82,92.85,92.8,92.84, 762
04/08/2020,19:10,92.79,92.85,92.77,92.77, 1600
04/08/2020,19:11,92.76,92.88,92.69,92.69, 12380
04/08/2020,19:12,92.66,92.75,92.58,92.59, 4533
04/08/2020,19:12,92.64,92.65,92.6,92.65, 300
04/08/2020,19:14,92.62,92.72,92.58,92.72, 700
04/08/2020,19:14,92.68,92.68,92.63,92.63, 200
04/08/2020,19:16,92.71,92.82,92.68,92.82, 901
04/08/2020,19:17,92.81,92.81,92.74,92.8, 1295
04/08/2020,19:18,92.83,92.85,92.73,92.8, 1000
04/08/2020,19:19,92.79,92.89,92.73,92.88, 2305
04/08/2020,19:20,92.85,92.92,92.83,92.89, 1735
04/08/2020,19:21,92.83,92.93,92.83,92.93, 1200
04/08/2020,19:22,92.96,93,92.84,92.86, 3800
04/08/2020,19:23,92.9,92.91,92.81,92.91, 2079
04/08/2020,19:24,92.91,92.96,92.91,92.96, 562
04/08/2020,19:25,92.96,92.96,92.88,92.92, 1277
04/08/2020,19:26,92.95,92.98,92.88,92.88, 1687
04/08/2020,19:27,92.88,92.95,92.82,92.82, 1096
04/08/2020,19:28,92.82,92.89,92.82,92.89, 1510
04/08/2020,19:29,92.88,92.88,92.79,92.81, 1400
04/08/2020,19:30,92.8,92.84,92.7,92.7, 1081
04/08/2020,19:31,92.68,92.8,92.68,92.8, 1001
04/08/2020,19:32,92.8,92.8,92.56,92.56, 2800
04/08/2020,19:33,92.57,92.61,92.45,92.52, 2088
04/08/2020,19:34,92.48,92.56,92.48,92.48, 600
04/08/2020,19:35,92.46,92.53,92.45,92.5, 4346
04/08/2020,19:36,92.51,92.51,92.41,92.46, 3600
04/08/2020,19:37,92.49,92.54,92.41,92.46, 4620
04/08/2020,19:38,92.5,92.6,92.5,92.6, 1000
04/08/2020,19:39,92.6,92.6,92.47,92.5, 1596
04/08/2020,19:40,92.47,92.47,92.38,92.42, 1834
04/08/2020,19:41,92.44,92.49,92.44,92.49, 400
04/08/2020,19:42,92.45,92.48,92.43,92.43, 952
04/08/2020,19:43,92.44,92.48,92.39,92.43, 1100
04/08/2020,19:44,92.4,92.43,92.37,92.42, 1159
04/08/2020,19:45,92.46,92.46,92.37,92.39, 1905
04/08/2020,19:46,92.4,92.55,92.4,92.52, 2309
04/08/2020,19:47,92.56,92.56,92.51,92.54, 1100
04/08/2020,19:48,92.49,92.58,92.49,92.58, 787
04/08/2020,19:49,92.56,92.57,92.47,92.47, 1666
04/08/2020,19:50,92.47,92.54,92.45,92.45, 900
04/08/2020,19:51,92.43,92.48,92.41,92.48, 500
04/08/2020,19:52,92.53,92.55,92.49,92.55, 892
04/08/2020,19:53,92.51,92.51,92.48,92.48, 930
04/08/2020,19:54,92.54,92.54,92.5,92.54, 1371
04/08/2020,19:55,92.52,92.62,92.52,92.62, 1100
04/08/2020,19:56,92.61,92.66,92.54,92.54, 1500
04/08/2020,19:57,92.55,92.55,92.44,92.45, 3400
04/08/2020,19:58,92.44,92.5,92.4,92.48, 1023
04/08/2020,19:59,92.48,92.58,92.48,92.51, 1400
04/08/2020,20:00,92.58,92.58,92.46,92.46, 2696
04/08/2020,20:01,92.46,92.51,92.46,92.51, 1864
04/08/2020,20:02,92.55,92.64,92.49,92.64, 1121
04/08/2020,20:03,92.61,92.7,92.58,92.66, 4241
04/08/2020,20:04,92.68,92.68,92.64,92.67, 752
04/08/2020,20:05,92.66,92.96,92.66,92.85, 4317
04/08/2020,20:06,92.91,93.05,92.86,93.01, 1100
04/08/2020,20:07,93.01,93.08,93.01,93.08, 2698
04/08/2020,20:08,93.04,93.2,93.03,93.18, 2632
04/08/2020,20:09,93.2,93.2,93.13,93.19, 3789
04/08/2020,20:10,93.22,93.29,93.18,93.29, 1202
04/08/2020,20:11,93.29,93.41,93.25,93.41, 1001
04/08/2020,20:12,93.47,93.47,93.31,93.31, 6419
04/08/2020,20:13,93.32,93.34,93.23,93.27, 4812
04/08/2020,20:14,93.25,93.28,93.21,93.21, 1000
04/08/2020,20:15,93.25,93.28,93.21,93.23, 1314
04/08/2020,20:16,93.24,93.32,93.24,93.32, 1000
04/08/2020,20:17,93.3,93.39,93.27,93.38, 3367
04/08/2020,20:18,93.38,93.42,93.36,93.36, 1367
04/08/2020,20:18,93.41,93.41,93.36,93.4, 1595
04/08/2020,20:20,93.4,93.54,93.4,93.47, 2791
04/08/2020,20:21,93.5,93.64,93.47,93.64, 4527
04/08/2020,20:22,93.65,93.68,93.57,93.6, 5522
04/08/2020,20:23,93.57,93.57,93.39,93.39, 1393
04/08/2020,20:24,93.33,93.39,93.3,93.37, 1440
04/08/2020,20:25,93.43,93.63,93.41,93.55, 4145
04/08/2020,20:26,93.63,93.69,93.61,93.69, 2100
04/08/2020,20:27,93.71,93.71,93.56,93.56, 5186
04/08/2020,20:28,93.55,93.55,93.4,93.4, 1500
04/08/2020,20:29,93.37,93.52,93.37,93.52, 2492
04/08/2020,20:30,93.47,93.48,93.43,93.47, 1792
04/08/2020,20:31,93.49,93.49,93.34,93.35, 16768
04/08/2020,20:32,93.37,93.5,93.37,93.5, 500
04/08/2020,20:33,93.47,93.47,93.38,93.46, 1100
04/08/2020,20:34,93.46,93.52,93.42,93.45, 3500
04/08/2020,20:35,93.45,93.45,93.43,93.43, 300
04/08/2020,20:36,93.47,93.48,93.42,93.46, 1000
04/08/2020,20:37,93.5,93.5,93.42,93.47, 1700
04/08/2020,20:38,93.44,93.56,93.43,93.56, 1588
04/08/2020,20:39,93.59,93.67,93.57,93.67, 2600
04/08/2020,20:40,93.59,93.61,93.55,93.59, 4529
04/08/2020,20:41,93.59,93.79,93.59,93.79, 2893
04/08/2020,20:42,93.84,93.95,93.8,93.85, 3908
04/08/2020,20:43,93.87,93.92,93.84,93.92, 1556
04/08/2020,20:44,93.92,94.05,93.88,94.05, 1900
04/08/2020,20:45,94.06,94.06,93.98,93.99, 4500
04/08/2020,20:46,93.97,93.99,93.89,93.97, 4411
04/08/2020,20:47,93.97,93.97,93.81,93.81, 2700
04/08/2020,20:48,93.84,93.84,93.75,93.76, 974
04/08/2020,20:49,93.73,93.73,93.57,93.69, 4469
04/08/2020,20:50,93.64,93.64,93.45,93.54, 1900
04/08/2020,20:51,93.55,93.62,93.53,93.62, 2501
04/08/2020,20:52,93.54,93.68,93.53,93.68, 986
04/08/2020,20:53,93.65,93.69,93.6,93.66, 3919
04/08/2020,20:54,93.71,93.74,93.68,93.72, 1500
04/08/2020,20:55,93.72,93.76,93.66,93.75, 4722
04/08/2020,20:56,93.75,93.76,93.69,93.69, 4512
04/08/2020,20:57,93.7,93.74,93.65,93.65, 2800
04/08/2020,20:58,93.72,93.77,93.66,93.69, 2494
04/08/2020,20:58,93.68,93.68,93.61,93.62, 2595
04/08/2020,21:00,93.6,93.74,93.58,93.73, 8662
04/08/2020,21:01,93.78,93.78,93.61,93.62, 3991
04/08/2020,21:02,93.64,93.72,93.64,93.7, 1431
04/08/2020,21:03,93.73,93.73,93.68,93.68, 1900
04/08/2020,21:04,93.7,93.71,93.65,93.66, 4355
04/08/2020,21:05,93.69,93.74,93.69,93.74, 988
04/08/2020,21:06,93.74,93.77,93.67,93.67, 3771
04/08/2020,21:07,93.69,93.74,93.67,93.74, 1701
04/08/2020,21:08,93.76,93.8,93.71,93.8, 1100
04/08/2020,21:09,93.83,93.89,93.82,93.89, 1000
04/08/2020,21:10,93.89,93.93,93.87,93.93, 2904
04/08/2020,21:11,93.94,93.94,93.91,93.91, 3705
04/08/2020,21:12,93.9,93.92,93.75,93.77, 8223
04/08/2020,21:13,93.78,93.78,93.61,93.63, 4181
04/08/2020,21:14,93.6,93.63,93.55,93.6, 1697
04/08/2020,21:15,93.57,93.57,93.44,93.48, 5207
04/08/2020,21:16,93.53,93.55,93.5,93.5, 1100
04/08/2020,21:17,93.5,93.58,93.46,93.53, 5596
04/08/2020,21:18,93.56,93.6,93.52,93.59, 925
04/08/2020,21:19,93.58,93.62,93.49,93.51, 9461
04/08/2020,21:20,93.48,93.48,93.39,93.45, 3427
04/08/2020,21:21,93.42,93.47,93.39,93.4, 2814
04/08/2020,21:22,93.4,93.46,93.25,93.25, 10318
04/08/2020,21:23,93.24,93.24,93.13,93.21, 3449
04/08/2020,21:24,93.22,93.29,93.18,93.18, 7546
04/08/2020,21:25,93.2,93.2,93.15,93.16, 1200
04/08/2020,21:26,93.21,93.28,93.13,93.25, 6359
04/08/2020,21:27,93.25,93.27,93.17,93.18, 8974
04/08/2020,21:28,93.2,93.27,93.17,93.23, 4256
04/08/2020,21:29,93.22,93.26,93.21,93.21, 4020
04/08/2020,21:30,93.21,93.26,93.21,93.26, 7339
04/08/2020,21:31,93.23,93.35,93.23,93.35, 1955
04/08/2020,21:32,93.39,93.5,93.36,93.5, 3537
04/08/2020,21:33,93.59,93.72,93.59,93.69, 4557
04/08/2020,21:34,93.68,93.68,93.5,93.55, 9336
04/08/2020,21:35,93.57,93.57,93.43,93.43, 5733
04/08/2020,21:36,93.47,93.47,93.24,93.25, 7886
04/08/2020,21:37,93.22,93.28,93.16,93.25, 6443
04/08/2020,21:38,93.2,93.2,93.05,93.15, 6334
04/08/2020,21:39,93.12,93.24,93.12,93.19, 2184
04/08/2020,21:40,93.2,93.21,93.13,93.21, 4919
04/08/2020,21:41,93.18,93.23,93.12,93.12, 4308
04/08/2020,21:42,93.11,93.15,92.93,92.94, 5585
04/08/2020,21:43,93.05,93.12,92.95,93.12, 7436
04/08/2020,21:44,93.15,93.22,93.13,93.21, 4848
04/08/2020,21:45,93.21,93.36,93.21,93.28, 4633
04/08/2020,21:46,93.28,93.31,93.15,93.17, 5301
04/08/2020,21:47,93.19,93.25,93.08,93.08, 5745
04/08/2020,21:48,93.11,93.26,93.08,93.12, 5233
04/08/2020,21:49,93.12,93.32,93.1,93.29, 6014
04/08/2020,21:50,93.34,93.41,93.31,93.41, 6057
04/08/2020,21:51,93.4,93.55,93.31,93.49, 7078
04/08/2020,21:51,93.62,94,93.55,94, 4878
04/08/2020,21:51,94.09,94.1,93.79,93.9, 4158
04/08/2020,21:52,93.86,93.89,93.59,93.63, 12271
04/08/2020,21:53,93.72,93.85,93.69,93.85, 7979
04/08/2020,21:54,93.78,93.78,93.63,93.68, 9518
04/08/2020,21:54,93.7,93.87,93.7,93.84, 7197
04/08/2020,21:55,93.84,93.91,93.76,93.78, 9165
04/08/2020,21:56,93.76,93.88,93.69,93.76, 9978
04/08/2020,21:56,93.72,93.73,93.56,93.65, 10570
04/08/2020,21:57,93.66,93.69,93.46,93.52, 22350
04/08/2020,21:58,93.52,93.64,93.44,93.5, 25504
04/08/2020,21:59,93.5,93.58,93.41,93.47, 14490
04/08/2020,21:59,93.39,93.51,93.38,93.48, 14916
04/08/2020,22:00,93.51,93.51,93.29,93.35, 12288
04/08/2020,22:00,93.4,93.44,93.28,93.39, 10014
04/08/2020,22:03,93.36,93.46,93.33,93.35, 204081
04/09/2020,15:31,94.72,94.72,94.72,94.72, 15874
04/09/2020,15:31,94.42,94.42,94.2,94.2, 300
04/09/2020,15:32,94.88,94.95,94.74,94.95, 400
04/09/2020,15:32,94.96,96.89,94.58,96.89, 2200
04/09/2020,15:33,97.08,97.08,97.08,97.08, 1000
04/09/2020,15:34,97.05,97.05,97.04,97.04, 1400
04/09/2020,15:37,96.28,96.28,96.28,96.28, 200
04/09/2020,15:38,96.51,96.51,96.51,96.51, 422
04/09/2020,15:39,95.98,96.51,95.98,96.51, 800
04/09/2020,15:39,96.51,96.85,96.34,96.61, 9475
04/09/2020,15:40,96.53,97.11,96.5,97.11, 1008
04/09/2020,15:40,97.11,97.13,96.9,97.01, 3608
04/09/2020,15:41,97.01,97.88,97.01,97.88, 1494
04/09/2020,15:41,97.57,97.57,97.49,97.49, 200
04/09/2020,15:42,97.75,97.75,97.44,97.48, 400
04/09/2020,15:43,97.52,98.05,97.52,98.03, 509
04/09/2020,15:43,97.89,98.02,97.53,97.61, 2087
04/09/2020,15:44,97.67,97.96,97.67,97.96, 350
04/09/2020,15:44,98.28,98.3,97.72,97.86, 5598
04/09/2020,15:45,98,98,97.73,97.73, 723
04/09/2020,15:46,97.93,97.93,97.93,97.93, 100
04/09/2020,15:47,97.72,97.86,97.72,97.72, 1812
04/09/2020,15:47,97.82,97.82,97.57,97.63, 1500
04/09/2020,15:48,97.56,97.79,97.56,97.65, 2201
04/09/2020,15:49,97.63,97.98,97.63,97.8, 2500
04/09/2020,15:49,98.22,98.22,97.96,98.09, 700
04/09/2020,15:50,97.73,97.9,97.67,97.67, 2332
04/09/2020,15:51,97.73,97.85,97.62,97.7, 1152
04/09/2020,15:51,97.7,97.7,97.67,97.68, 1200
04/09/2020,15:52,97.75,97.88,97.75,97.87, 1300
04/09/2020,15:53,97.98,98.15,97.98,98.15, 900
04/09/2020,15:53,98.23,98.23,97.88,97.97, 13883
04/09/2020,15:54,97.97,98.01,97.9,98, 5099
04/09/2020,15:54,98,98,98,98, 200
04/09/2020,15:55,98.13,98.13,97.96,97.96, 3604
04/09/2020,15:55,97.89,98.03,97.89,98.02, 1300
04/09/2020,15:56,98.12,98.14,98.05,98.09, 1300
04/09/2020,15:57,98.11,98.37,98.1,98.3, 1700
04/09/2020,15:58,98.18,98.18,98.12,98.12, 1000
04/09/2020,15:59,98.06,98.18,98.02,98.15, 3825
04/09/2020,15:59,98.18,98.28,98.18,98.28, 2777
04/09/2020,16:00,98.18,98.27,98.08,98.11, 3707
04/09/2020,16:00,98.14,98.79,98.14,98.79, 3012
04/09/2020,16:01,98.77,98.81,98.56,98.81, 2188
04/09/2020,16:02,98.73,98.78,98.45,98.56, 53100
04/09/2020,16:02,98.47,98.47,97.99,98.2, 7460
04/09/2020,16:03,98.11,98.33,98.04,98.2, 8376
04/09/2020,16:03,98.22,98.37,98.22,98.36, 2180
04/09/2020,16:04,98.32,98.32,98.14,98.21, 1500
04/09/2020,16:05,98.3,98.3,98.3,98.3, 120
04/09/2020,16:05,98.13,98.13,98.03,98.11, 1834
04/09/2020,16:06,98.02,98.02,97.72,97.72, 1539
04/09/2020,16:06,97.72,97.96,97.72,97.9, 2000
04/09/2020,16:07,97.97,97.97,97.79,97.79, 1293
04/09/2020,16:08,97.76,97.84,97.67,97.67, 900
04/09/2020,16:08,97.67,97.67,97.36,97.36, 1335
04/09/2020,16:09,97.67,98.01,97.62,97.88, 2655
04/09/2020,16:10,97.88,97.88,97.62,97.62, 3700
04/09/2020,16:10,97.52,97.59,97.5,97.5, 500
04/09/2020,16:11,97.55,97.55,97.34,97.46, 22287
04/09/2020,16:12,97.45,97.47,97.41,97.41, 1900
04/09/2020,16:12,97.4,97.5,97.4,97.5, 925
04/09/2020,16:13,97.53,97.63,97.47,97.63, 3652
04/09/2020,16:14,97.58,97.6,97.4,97.4, 2700
04/09/2020,16:15,97.43,97.45,97.39,97.39, 700
04/09/2020,16:16,97.42,97.67,97.42,97.66, 2413
04/09/2020,16:16,97.75,97.75,97.74,97.74, 600
04/09/2020,16:17,97.62,97.62,97.53,97.55, 860
04/09/2020,16:17,97.67,97.75,97.67,97.75, 600
04/09/2020,16:18,97.79,97.88,97.62,97.88, 1900
04/09/2020,16:19,97.78,97.84,97.45,97.45, 5449
04/09/2020,16:20,97.22,97.42,97.22,97.41, 900
04/09/2020,16:20,97.28,97.28,97.18,97.18, 400
04/09/2020,16:21,97.18,97.26,97.11,97.11, 8711
04/09/2020,16:21,97.16,97.19,97.09,97.13, 2929
04/09/2020,16:22,97.16,97.41,97.14,97.37, 3701
04/09/2020,16:23,97.28,97.31,97.25,97.29, 1453
04/09/2020,16:23,97.3,97.41,97.3,97.36, 1399
04/09/2020,16:24,97.3,97.32,97.21,97.25, 1400
04/09/2020,16:24,97.17,97.23,96.86,96.93, 3868
04/09/2020,16:25,96.93,97.09,96.93,96.94, 1300
04/09/2020,16:26,97.11,97.25,96.97,97.23, 442
04/09/2020,16:27,97.33,97.45,97.24,97.45, 1302
04/09/2020,16:28,97.49,97.49,97.49,97.49, 200
04/09/2020,16:28,97.59,97.64,97.39,97.64, 1394
04/09/2020,16:29,97.71,97.71,97.52,97.56, 2864
04/09/2020,16:30,97.54,97.68,97.54,97.54, 1460
04/09/2020,16:30,97.59,97.68,97.54,97.68, 600
04/09/2020,16:31,97.76,97.82,97.52,97.6, 800
04/09/2020,16:31,97.52,97.53,97.42,97.43, 2200
04/09/2020,16:32,97.39,97.67,97.34,97.6, 3722
04/09/2020,16:33,97.73,97.73,97.61,97.67, 2467
04/09/2020,16:34,97.7,97.86,97.7,97.84, 794
04/09/2020,16:34,97.85,97.87,97.75,97.76, 1966
04/09/2020,16:35,97.95,98.15,97.93,98.15, 2300
04/09/2020,16:36,98.14,98.32,98.14,98.18, 1700
04/09/2020,16:36,98.31,98.31,98.14,98.14, 1350
04/09/2020,16:37,98.11,98.11,97.96,98.11, 3963
04/09/2020,16:38,98.13,98.15,98.13,98.15, 395
04/09/2020,16:38,98.16,98.21,98.16,98.16, 1200
04/09/2020,16:40,98.47,98.5,98.38,98.49, 2678
04/09/2020,16:40,98.5,98.5,98.24,98.27, 2372
04/09/2020,16:41,98.37,98.37,98.32,98.32, 300
04/09/2020,16:43,98.36,98.38,98.25,98.25, 2400
04/09/2020,16:43,98.24,98.27,98.15,98.16, 3575
04/09/2020,16:44,98.23,98.24,98.07,98.07, 1100
04/09/2020,16:44,98.06,98.06,97.9,97.9, 1300
04/09/2020,16:45,97.93,98.08,97.89,97.99, 1900
04/09/2020,16:46,98.14,98.17,98.04,98.12, 2326
04/09/2020,16:46,98.06,98.06,98.01,98.01, 1000
04/09/2020,16:47,98.12,98.34,98.09,98.25, 2700
04/09/2020,16:48,98.25,98.25,98.09,98.09, 2736
04/09/2020,16:49,98.14,98.22,98.09,98.19, 3000
04/09/2020,16:50,98.19,98.19,98.08,98.11, 1403
04/09/2020,16:51,98.07,98.12,97.89,98.07, 5725
04/09/2020,16:53,98.02,98.02,97.88,97.88, 1800
04/09/2020,16:53,97.9,97.96,97.84,97.96, 1275
04/09/2020,16:55,98.02,98.06,97.84,97.86, 3971
04/09/2020,16:56,97.84,98.02,97.84,97.96, 3142
04/09/2020,16:58,97.96,98.05,97.9,98.01, 4213
04/09/2020,16:59,97.96,97.96,97.86,97.86, 1620
04/09/2020,17:00,97.87,97.87,97.63,97.8, 4140
04/09/2020,17:02,97.75,97.75,97.69,97.69, 200
04/09/2020,17:03,97.68,97.71,97.52,97.54, 3221
04/09/2020,17:05,97.52,97.56,97.46,97.46, 3600
04/09/2020,17:05,97.42,97.54,97.42,97.5, 6100
04/09/2020,17:07,97.49,97.57,97.4,97.4, 11531
04/09/2020,17:08,97.4,97.7,97.4,97.65, 7100
04/09/2020,17:09,97.65,97.72,97.54,97.64, 3810
04/09/2020,17:11,97.77,97.91,97.64,97.86, 10259
04/09/2020,17:12,97.92,97.92,97.59,97.67, 2175
04/09/2020,17:14,97.56,97.75,97.56,97.68, 2200
04/09/2020,17:15,97.74,97.78,97.49,97.49, 4178
04/09/2020,17:16,97.43,97.64,97.43,97.49, 3558
04/09/2020,17:17,97.54,97.54,97.39,97.47, 1861
04/09/2020,17:19,97.5,97.51,97.4,97.47, 800
04/09/2020,17:19,97.56,97.59,97.48,97.54, 1154
04/09/2020,17:22,97.53,97.73,97.53,97.68, 1845
04/09/2020,17:23,97.67,97.85,97.64,97.76, 2400
04/09/2020,17:25,97.64,97.64,97.4,97.5, 2388
04/09/2020,17:26,97.48,97.48,97.37,97.4, 523
04/09/2020,17:28,97.55,97.55,97.44,97.55, 2560
04/09/2020,17:29,97.5,97.55,97.37,97.47, 6500
04/09/2020,17:30,97.54,97.62,97.48,97.49, 2600
04/09/2020,17:31,97.55,97.56,97.49,97.5, 5980
04/09/2020,17:33,97.5,97.57,97.45,97.45, 33099
04/09/2020,17:34,97.51,97.56,97.42,97.45, 3460
04/09/2020,17:35,97.46,97.46,97.37,97.37, 800
04/09/2020,17:37,97.4,97.42,97.27,97.31, 4905
04/09/2020,17:39,97.35,97.62,97.27,97.62, 2376
04/09/2020,17:40,97.57,97.71,97.57,97.62, 1000
04/09/2020,17:42,97.67,97.83,97.64,97.79, 2976
04/09/2020,17:43,97.83,97.83,97.64,97.65, 4133
04/09/2020,17:44,97.61,97.7,97.55,97.6, 1470
04/09/2020,17:46,97.59,97.76,97.56,97.76, 3200
04/09/2020,17:47,97.73,97.78,97.55,97.67, 4264
04/09/2020,17:49,97.64,97.69,97.51,97.65, 5300
04/09/2020,17:51,97.64,97.72,97.59,97.62, 4354
04/09/2020,17:53,97.56,97.64,97.31,97.31, 2513
04/09/2020,17:54,97.3,97.31,97.15,97.15, 1962
04/09/2020,17:56,97.03,97.14,96.94,97.09, 3859
04/09/2020,17:58,97.09,97.26,97.05,97.15, 1200
04/09/2020,18:00,97.27,97.37,97.23,97.37, 1601
04/09/2020,18:02,97.37,97.74,97.37,97.73, 4252
04/09/2020,18:03,97.68,97.68,97.53,97.53, 2770
04/09/2020,18:05,97.55,97.71,97.52,97.7, 1171
04/09/2020,18:07,97.76,97.9,97.64,97.7, 6984
04/09/2020,18:08,97.67,97.71,97.67,97.68, 1315
04/09/2020,18:10,97.71,97.8,97.71,97.77, 1629
04/09/2020,18:12,97.79,97.85,97.76,97.84, 3853
04/09/2020,18:13,97.8,97.91,97.8,97.91, 2346
04/09/2020,18:15,97.83,97.89,97.79,97.86, 6564
04/09/2020,18:17,97.83,97.85,97.8,97.84, 5138
04/09/2020,18:19,97.84,97.92,97.78,97.86, 6796
04/09/2020,18:20,97.83,97.93,97.68,97.93, 6129
04/09/2020,18:22,97.94,97.97,97.88,97.9, 3504
04/09/2020,18:24,97.89,97.93,97.76,97.84, 19298
04/09/2020,18:25,97.83,97.88,97.83,97.88, 3544
04/09/2020,18:27,97.86,97.89,97.73,97.85, 27130
04/09/2020,18:28,97.82,97.82,97.6,97.61, 2815
04/09/2020,18:30,97.59,97.62,97.51,97.59, 1421
04/09/2020,18:32,97.64,97.75,97.58,97.75, 3118
04/09/2020,18:34,97.73,97.77,97.62,97.65, 3411
04/09/2020,18:36,97.55,97.65,97.55,97.61, 2100
04/09/2020,18:38,97.6,97.66,97.56,97.65, 3193
04/09/2020,18:39,97.62,97.76,97.6,97.71, 2919
04/09/2020,18:41,97.74,97.82,97.72,97.82, 1200
04/09/2020,18:42,97.77,97.79,97.7,97.79, 1137
04/09/2020,18:43,97.76,97.89,97.76,97.89, 1455
04/09/2020,18:44,97.93,97.93,97.86,97.92, 1570
04/09/2020,18:45,97.94,98.01,97.94,98.01, 600
04/09/2020,18:46,97.95,97.98,97.75,97.75, 3721
04/09/2020,18:47,97.78,97.78,97.7,97.7, 200
04/09/2020,18:47,97.68,97.69,97.67,97.67, 800
04/09/2020,18:49,97.68,97.76,97.65,97.67, 1935
04/09/2020,18:50,97.73,97.75,97.68,97.72, 1551
04/09/2020,18:51,97.74,97.74,97.63,97.71, 2025
04/09/2020,18:52,97.73,97.77,97.69,97.69, 1400
04/09/2020,18:53,97.75,97.77,97.65,97.65, 956
04/09/2020,18:53,97.59,97.68,97.59,97.68, 400
04/09/2020,18:55,97.71,97.77,97.71,97.73, 1207
04/09/2020,18:56,97.85,97.85,97.85,97.85, 100
04/09/2020,18:57,97.8,98.06,97.8,98.06, 2523
04/09/2020,18:58,98.08,98.13,98,98.01, 4590
04/09/2020,18:59,97.98,98.03,97.96,98.03, 986
04/09/2020,19:00,97.98,98.11,97.97,97.97, 1507
04/09/2020,19:01,98.04,98.04,97.98,98.03, 306
04/09/2020,19:02,97.98,98,97.9,97.93, 1014
04/09/2020,19:03,97.97,97.97,97.91,97.94, 1300
04/09/2020,19:04,97.92,98.03,97.92,98.03, 300
04/09/2020,19:05,97.96,98.12,97.95,97.95, 4123
