03/02/2020,09:01,1.494,1.494,1.494,1.494, 4442
03/02/2020,09:04,1.4825,1.483,1.4825,1.483, 4004
03/02/2020,09:05,1.4895,1.4905,1.4875,1.488, 8392
03/02/2020,09:06,1.486,1.486,1.4825,1.486, 8033
03/02/2020,09:06,1.483,1.483,1.482,1.482, 1705
03/02/2020,09:08,1.487,1.4885,1.487,1.4885, 1474
03/02/2020,09:09,1.486,1.486,1.486,1.486, 4025
03/02/2020,09:10,1.487,1.487,1.487,1.487, 2071
03/02/2020,09:11,1.4885,1.4885,1.4885,1.4885, 1189
03/02/2020,09:12,1.49,1.49,1.49,1.49, 474
03/02/2020,09:13,1.4915,1.496,1.4915,1.4955, 6804
03/02/2020,09:14,1.497,1.497,1.497,1.497, 474
03/02/2020,09:16,1.4995,1.507,1.4995,1.5065, 19015
03/02/2020,09:17,1.5075,1.5095,1.5075,1.5095, 2143
03/02/2020,09:18,1.5135,1.5135,1.5115,1.5115, 5189
03/02/2020,09:19,1.508,1.508,1.5075,1.508, 5328
03/02/2020,09:20,1.508,1.5085,1.505,1.5065, 7025
03/02/2020,09:21,1.505,1.505,1.5045,1.5045, 2528
03/02/2020,09:24,1.5025,1.5025,1.5025,1.5025, 512
03/02/2020,09:25,1.5,1.5,1.498,1.498, 3793
03/02/2020,09:26,1.498,1.498,1.497,1.497, 3210
03/02/2020,09:27,1.4955,1.4955,1.4945,1.4945, 7290
03/02/2020,09:28,1.4925,1.4935,1.4915,1.492, 5488
03/02/2020,09:29,1.4925,1.4935,1.4925,1.4935, 12341
03/02/2020,09:30,1.494,1.494,1.491,1.491, 27139
03/02/2020,09:31,1.492,1.492,1.4895,1.491, 5548
03/02/2020,09:32,1.489,1.4905,1.488,1.488, 18230
03/02/2020,09:33,1.4885,1.4945,1.488,1.491, 84879
03/02/2020,09:34,1.4945,1.4995,1.4935,1.4995, 13240
03/02/2020,09:34,1.5015,1.5015,1.5015,1.5015, 323
03/02/2020,09:36,1.506,1.5065,1.503,1.5039, 5934
03/02/2020,09:39,1.5025,1.5025,1.495,1.495, 6822
03/02/2020,09:40,1.497,1.4995,1.494,1.4995, 12399
03/02/2020,09:41,1.4995,1.4995,1.4995,1.4995, 5200
03/02/2020,09:42,1.5,1.5025,1.5,1.5025, 7705
03/02/2020,09:43,1.503,1.506,1.503,1.506, 6707
03/02/2020,09:44,1.5039,1.504,1.502,1.502, 8157
03/02/2020,09:45,1.5,1.5,1.496,1.496, 4262
03/02/2020,09:45,1.495,1.495,1.495,1.495, 2000
03/02/2020,09:47,1.4935,1.4935,1.4925,1.4925, 3985
03/02/2020,09:48,1.4945,1.4975,1.4935,1.4945, 26299
03/02/2020,09:49,1.497,1.4985,1.497,1.498, 11702
03/02/2020,09:50,1.499,1.501,1.499,1.501, 1534
03/02/2020,09:51,1.5005,1.505,1.5005,1.505, 11037
03/02/2020,09:52,1.5035,1.505,1.5035,1.5045, 3574
03/02/2020,09:53,1.5045,1.5045,1.5015,1.5015, 1183
03/02/2020,09:54,1.5015,1.503,1.5015,1.502, 8998
03/02/2020,09:55,1.5015,1.5015,1.5015,1.5015, 2024
03/02/2020,09:56,1.503,1.503,1.498,1.498, 13282
03/02/2020,09:57,1.4986,1.4988,1.4986,1.4988, 7056
03/02/2020,09:58,1.4985,1.4985,1.498,1.498, 2060
03/02/2020,09:59,1.4965,1.4965,1.4965,1.4965, 3906
03/02/2020,09:59,1.4945,1.4945,1.4945,1.4945, 1521
03/02/2020,10:01,1.4939,1.496,1.4939,1.496, 6761
03/02/2020,10:02,1.497,1.497,1.4965,1.4965, 1595
03/02/2020,10:03,1.496,1.498,1.496,1.498, 14155
03/02/2020,10:04,1.4975,1.4985,1.4965,1.497, 8081
03/02/2020,10:04,1.497,1.4975,1.497,1.4975, 566
03/02/2020,10:06,1.498,1.4995,1.498,1.499, 5682
03/02/2020,10:07,1.498,1.498,1.497,1.498, 3527
03/02/2020,10:08,1.497,1.498,1.4955,1.4965, 6221
03/02/2020,10:09,1.496,1.4965,1.4955,1.4955, 2356
03/02/2020,10:10,1.4945,1.4945,1.493,1.493, 5684
03/02/2020,10:14,1.492,1.493,1.491,1.493, 17964
03/02/2020,10:14,1.4915,1.4915,1.4895,1.4895, 9571
03/02/2020,10:16,1.49,1.4905,1.49,1.4905, 8789
03/02/2020,10:17,1.4895,1.4895,1.489,1.4895, 4971
03/02/2020,10:18,1.488,1.488,1.488,1.488, 2558
03/02/2020,10:19,1.4875,1.489,1.4875,1.489, 3013
03/02/2020,10:20,1.488,1.488,1.4875,1.4875, 2912
03/02/2020,10:21,1.488,1.492,1.488,1.4905, 34552
03/02/2020,10:22,1.492,1.4935,1.492,1.4925, 1195
03/02/2020,10:23,1.492,1.493,1.492,1.492, 1294
03/02/2020,10:24,1.4955,1.4955,1.4955,1.4955, 537
03/02/2020,10:24,1.4945,1.4945,1.4945,1.4945, 2394
03/02/2020,10:26,1.4955,1.4955,1.4945,1.4945, 2055
03/02/2020,10:26,1.4943,1.495,1.4943,1.495, 7166
03/02/2020,10:28,1.495,1.495,1.495,1.495, 366
03/02/2020,10:28,1.4935,1.4935,1.4935,1.4935, 1472
03/02/2020,10:30,1.4925,1.4925,1.4925,1.4925, 1529
03/02/2020,10:31,1.494,1.494,1.4935,1.494, 2123
03/02/2020,10:32,1.494,1.494,1.494,1.494, 941
03/02/2020,10:33,1.492,1.492,1.492,1.492, 2561
03/02/2020,10:34,1.4905,1.4905,1.4905,1.4905, 73
03/02/2020,10:35,1.4905,1.4905,1.49,1.4905, 5393
03/02/2020,10:36,1.4895,1.4895,1.4875,1.4875, 6264
03/02/2020,10:37,1.488,1.488,1.486,1.486, 6415
03/02/2020,10:39,1.4835,1.4835,1.4831,1.4831, 2932
03/02/2020,10:40,1.483,1.483,1.481,1.4825, 7236
03/02/2020,10:41,1.481,1.481,1.4805,1.481, 1552
03/02/2020,10:41,1.4795,1.4805,1.4785,1.4785, 6003
03/02/2020,10:43,1.479,1.479,1.479,1.479, 801
03/02/2020,10:44,1.478,1.478,1.477,1.477, 2290
03/02/2020,10:45,1.4765,1.4765,1.4765,1.4765, 1882
03/02/2020,10:47,1.4755,1.4755,1.475,1.475, 2240
03/02/2020,10:48,1.473,1.473,1.473,1.473, 356
03/02/2020,10:49,1.473,1.473,1.4725,1.4725, 637
03/02/2020,10:50,1.4715,1.4715,1.465,1.4655, 68659
03/02/2020,10:51,1.4655,1.466,1.4645,1.466, 8530
03/02/2020,10:52,1.467,1.4675,1.4655,1.4655, 7516
03/02/2020,10:53,1.4655,1.4655,1.462,1.462, 3145
03/02/2020,10:54,1.464,1.4645,1.4635,1.4635, 6490
03/02/2020,10:55,1.4635,1.464,1.462,1.462, 6932
03/02/2020,10:56,1.4625,1.4625,1.462,1.462, 1675
03/02/2020,10:56,1.4605,1.461,1.4605,1.4605, 4827
03/02/2020,10:58,1.46,1.46,1.46,1.46, 2563
03/02/2020,10:59,1.459,1.4645,1.459,1.4645, 11107
03/02/2020,11:01,1.4685,1.4695,1.467,1.467, 5769
03/02/2020,11:02,1.4655,1.4655,1.4655,1.4655, 1491
03/02/2020,11:03,1.4635,1.464,1.463,1.464, 471
03/02/2020,11:03,1.464,1.465,1.464,1.465, 5849
03/02/2020,11:05,1.4652,1.4652,1.4652,1.4652, 682
03/02/2020,11:06,1.464,1.464,1.4635,1.4635, 706
03/02/2020,11:07,1.463,1.463,1.463,1.463, 972
03/02/2020,11:10,1.463,1.463,1.463,1.463, 1040
03/02/2020,11:11,1.4625,1.4625,1.46,1.461, 5520
03/02/2020,11:12,1.4605,1.461,1.458,1.459, 16961
03/02/2020,11:13,1.458,1.458,1.4555,1.4555, 16004
03/02/2020,11:14,1.454,1.458,1.454,1.458, 16007
03/02/2020,11:15,1.457,1.457,1.4555,1.4565, 3607
03/02/2020,11:16,1.457,1.46,1.457,1.4595, 25149
03/02/2020,11:16,1.4595,1.4595,1.4595,1.4595, 330
03/02/2020,11:18,1.462,1.462,1.4617,1.4617, 4311
03/02/2020,11:19,1.4635,1.465,1.4635,1.465, 777
03/02/2020,11:21,1.466,1.466,1.4635,1.4635, 2452
03/02/2020,11:23,1.4615,1.4615,1.4615,1.4615, 905
03/02/2020,11:25,1.46,1.4612,1.4595,1.4595, 7731
03/02/2020,11:26,1.459,1.459,1.459,1.459, 282
03/02/2020,11:29,1.457,1.4585,1.4565,1.4585, 331
03/02/2020,11:29,1.4585,1.4585,1.4585,1.4585, 1247
03/02/2020,11:30,1.459,1.461,1.459,1.461, 5177
03/02/2020,11:33,1.4625,1.4635,1.4625,1.4635, 2584
03/02/2020,11:34,1.4645,1.467,1.464,1.464, 7817
03/02/2020,11:36,1.462,1.462,1.461,1.461, 11092
03/02/2020,11:36,1.461,1.464,1.461,1.4635, 7157
03/02/2020,11:39,1.4625,1.4625,1.4625,1.4625, 501
03/02/2020,11:40,1.461,1.461,1.461,1.461, 240
03/02/2020,11:40,1.46,1.4605,1.4595,1.4605, 1792
03/02/2020,11:42,1.46,1.46,1.4595,1.4595, 2582
03/02/2020,11:42,1.459,1.4595,1.4575,1.4575, 1858
03/02/2020,11:45,1.4565,1.458,1.456,1.458, 8875
03/02/2020,11:46,1.458,1.4585,1.457,1.4582, 4087
03/02/2020,11:47,1.459,1.46,1.459,1.46, 8280
03/02/2020,11:48,1.458,1.4585,1.458,1.4585, 3525
03/02/2020,11:48,1.457,1.457,1.457,1.457, 389
03/02/2020,11:50,1.4555,1.4555,1.454,1.454, 1241
03/02/2020,11:51,1.4555,1.456,1.455,1.456, 4425
03/02/2020,11:51,1.457,1.457,1.457,1.457, 725
03/02/2020,11:53,1.457,1.4575,1.457,1.4575, 3064
03/02/2020,11:54,1.456,1.4575,1.456,1.456, 977
03/02/2020,11:56,1.454,1.456,1.453,1.4545, 15336
03/02/2020,11:57,1.4545,1.4545,1.4535,1.4535, 3067
03/02/2020,11:58,1.452,1.452,1.452,1.452, 111
03/02/2020,11:59,1.45,1.45,1.45,1.45, 229
03/02/2020,12:00,1.449,1.449,1.4475,1.4475, 6438
03/02/2020,12:01,1.4475,1.4475,1.4465,1.4475, 2680
03/02/2020,12:02,1.4505,1.451,1.449,1.451, 5112
03/02/2020,12:03,1.45,1.4515,1.4495,1.4495, 21209
03/02/2020,12:04,1.4485,1.4485,1.4445,1.4445, 12618
03/02/2020,12:05,1.4435,1.447,1.4435,1.447, 15556
03/02/2020,12:06,1.446,1.447,1.446,1.446, 2699
03/02/2020,12:08,1.447,1.447,1.447,1.447, 105
03/02/2020,12:09,1.4475,1.448,1.4475,1.448, 7565
03/02/2020,12:10,1.4475,1.4482,1.4475,1.4482, 598
03/02/2020,12:10,1.4455,1.4455,1.4455,1.4455, 830
03/02/2020,12:11,1.4445,1.4445,1.443,1.443, 778
03/02/2020,12:13,1.4455,1.4455,1.4455,1.4455, 2814
03/02/2020,12:15,1.445,1.445,1.4435,1.4435, 6096
03/02/2020,12:16,1.4435,1.4435,1.441,1.441, 1703
03/02/2020,12:16,1.441,1.441,1.441,1.441, 2000
03/02/2020,12:18,1.441,1.441,1.441,1.441, 395
03/02/2020,12:19,1.443,1.445,1.443,1.445, 6721
03/02/2020,12:21,1.4465,1.4485,1.446,1.446, 3556
03/02/2020,12:22,1.4469,1.4469,1.4469,1.4469, 341
03/02/2020,12:22,1.4445,1.4445,1.4445,1.4445, 263
03/02/2020,12:24,1.444,1.444,1.4395,1.441, 46186
03/02/2020,12:24,1.4395,1.4405,1.4385,1.4385, 7354
03/02/2020,12:27,1.438,1.438,1.4355,1.437, 8375
03/02/2020,12:28,1.438,1.438,1.438,1.438, 3173
03/02/2020,12:29,1.4365,1.4365,1.4365,1.4365, 382
03/02/2020,12:31,1.436,1.439,1.435,1.438, 12587
03/02/2020,12:34,1.438,1.438,1.4375,1.4375, 2369
03/02/2020,12:36,1.4365,1.4365,1.4365,1.4365, 2623
03/02/2020,12:37,1.4365,1.437,1.4355,1.437, 10344
03/02/2020,12:38,1.4385,1.439,1.437,1.437, 9963
03/02/2020,12:39,1.438,1.4385,1.438,1.4385, 390
03/02/2020,12:40,1.4385,1.4385,1.4355,1.4355, 17954
03/02/2020,12:42,1.434,1.435,1.434,1.434, 9056
03/02/2020,12:43,1.433,1.433,1.432,1.432, 1375
03/02/2020,12:43,1.43,1.432,1.43,1.432, 842
03/02/2020,12:44,1.4303,1.4303,1.4303,1.4303, 659
03/02/2020,12:46,1.428,1.4285,1.428,1.428, 586
03/02/2020,12:47,1.4305,1.432,1.4305,1.432, 5667
03/02/2020,12:48,1.432,1.4325,1.4312,1.4325, 1618
03/02/2020,12:49,1.433,1.4345,1.433,1.4345, 5353
03/02/2020,12:50,1.435,1.435,1.435,1.435, 843
03/02/2020,12:51,1.434,1.434,1.433,1.433, 3088
03/02/2020,12:53,1.4315,1.4315,1.431,1.431, 1501
03/02/2020,12:54,1.4305,1.4305,1.4295,1.4295, 2017
03/02/2020,12:55,1.428,1.428,1.428,1.428, 385
03/02/2020,12:56,1.426,1.426,1.424,1.424, 2245
03/02/2020,12:58,1.423,1.423,1.422,1.422, 10945
03/02/2020,12:59,1.4225,1.4225,1.4175,1.4175, 10423
03/02/2020,13:00,1.4195,1.42,1.4195,1.42, 10346
03/02/2020,13:00,1.42,1.4205,1.42,1.42, 5942
03/02/2020,13:03,1.424,1.428,1.424,1.428, 1135
03/02/2020,13:04,1.4229,1.4229,1.4229,1.4229, 2290
03/02/2020,13:05,1.4265,1.427,1.4265,1.427, 2036
03/02/2020,13:07,1.427,1.432,1.427,1.4315, 15011
03/02/2020,13:09,1.433,1.434,1.43,1.43, 6869
03/02/2020,13:09,1.4295,1.4295,1.4295,1.4295, 1644
03/02/2020,13:10,1.4296,1.4296,1.4296,1.4296, 1182
03/02/2020,13:12,1.4305,1.4305,1.4305,1.4305, 109
03/02/2020,13:13,1.428,1.432,1.428,1.432, 6438
03/02/2020,13:14,1.4315,1.4315,1.428,1.428, 10603
03/02/2020,13:14,1.428,1.428,1.428,1.428, 1761
03/02/2020,13:16,1.427,1.427,1.426,1.426, 5299
03/02/2020,13:17,1.4265,1.4265,1.4265,1.4265, 2697
03/02/2020,13:17,1.4275,1.4275,1.426,1.426, 1262
03/02/2020,13:18,1.4255,1.426,1.4255,1.426, 4596
03/02/2020,13:20,1.425,1.425,1.4235,1.4235, 1156
03/02/2020,13:22,1.4205,1.4205,1.42,1.42, 1374
03/02/2020,13:23,1.4195,1.421,1.419,1.421, 4633
03/02/2020,13:24,1.421,1.421,1.421,1.421, 1115
03/02/2020,13:26,1.421,1.4215,1.421,1.421, 1553
03/02/2020,13:28,1.4254,1.4254,1.4254,1.4254, 697
03/02/2020,13:30,1.427,1.4275,1.427,1.4275, 5672
03/02/2020,13:32,1.424,1.425,1.424,1.424, 5506
03/02/2020,13:33,1.4235,1.4235,1.4235,1.4235, 541
03/02/2020,13:34,1.4225,1.4225,1.4225,1.4225, 985
03/02/2020,13:35,1.4195,1.4195,1.4145,1.415, 39266
03/02/2020,13:35,1.4145,1.415,1.4145,1.415, 392
03/02/2020,13:37,1.4125,1.4125,1.4125,1.4125, 571
03/02/2020,13:38,1.412,1.412,1.412,1.412, 1297
03/02/2020,13:38,1.417,1.417,1.417,1.417, 1514
03/02/2020,13:40,1.4165,1.4165,1.414,1.414, 6106
03/02/2020,13:40,1.4125,1.4125,1.4125,1.4125, 194
03/02/2020,13:42,1.4155,1.4155,1.414,1.414, 1354
03/02/2020,13:43,1.4125,1.413,1.412,1.413, 1822
03/02/2020,13:44,1.4125,1.4162,1.4125,1.4162, 10490
03/02/2020,13:45,1.413,1.4135,1.4105,1.4105, 32218
03/02/2020,13:46,1.411,1.4145,1.4105,1.4145, 11169
03/02/2020,13:47,1.416,1.418,1.416,1.4175, 4224
03/02/2020,13:50,1.4185,1.419,1.4185,1.4185, 3478
03/02/2020,13:51,1.419,1.419,1.419,1.419, 2843
03/02/2020,13:54,1.419,1.4205,1.4185,1.4185, 9156
03/02/2020,13:55,1.417,1.4245,1.416,1.4245, 12195
03/02/2020,13:56,1.4185,1.4185,1.4185,1.4185, 2234
03/02/2020,13:58,1.421,1.4215,1.421,1.421, 5902
03/02/2020,14:00,1.4255,1.427,1.4235,1.427, 7889
03/02/2020,14:02,1.4285,1.4285,1.428,1.428, 1540
03/02/2020,14:02,1.4285,1.4285,1.4285,1.4285, 126
03/02/2020,14:04,1.428,1.4285,1.428,1.4285, 731
03/02/2020,14:06,1.427,1.431,1.427,1.431, 22170
03/02/2020,14:07,1.4298,1.4327,1.4298,1.4327, 8722
03/02/2020,14:08,1.433,1.433,1.433,1.433, 693
03/02/2020,14:11,1.43,1.43,1.43,1.43, 4571
03/02/2020,14:13,1.4285,1.4285,1.4285,1.4285, 4926
03/02/2020,14:14,1.431,1.432,1.431,1.4315, 9768
03/02/2020,14:15,1.4335,1.4335,1.4335,1.4335, 804
03/02/2020,14:18,1.4335,1.4355,1.4335,1.4355, 5366
03/02/2020,14:20,1.438,1.4385,1.438,1.4385, 3512
03/02/2020,14:21,1.4355,1.4355,1.4345,1.4345, 6867
03/02/2020,14:21,1.4355,1.4355,1.4355,1.4355, 4083
03/02/2020,14:23,1.434,1.434,1.4325,1.433, 4774
03/02/2020,14:24,1.4325,1.435,1.4315,1.435, 6584
03/02/2020,14:26,1.4345,1.435,1.4345,1.435, 1705
03/02/2020,14:26,1.4325,1.4325,1.4325,1.4325, 3324
03/02/2020,14:28,1.4315,1.4321,1.431,1.4321, 3930
03/02/2020,14:30,1.4321,1.4335,1.4321,1.4335, 6060
03/02/2020,14:31,1.4345,1.4345,1.4315,1.4315, 1928
03/02/2020,14:34,1.4305,1.4315,1.43,1.43, 6444
03/02/2020,14:38,1.4322,1.434,1.4322,1.434, 1959
03/02/2020,14:39,1.4345,1.4345,1.4345,1.4345, 2429
03/02/2020,14:39,1.4345,1.4355,1.4345,1.4355, 2495
03/02/2020,14:40,1.4335,1.4335,1.4325,1.4325, 4101
03/02/2020,14:41,1.433,1.433,1.433,1.433, 1371
03/02/2020,14:43,1.433,1.4335,1.433,1.4335, 6183
03/02/2020,14:44,1.4325,1.4325,1.4305,1.4305, 8515
03/02/2020,14:45,1.4295,1.4295,1.4265,1.4265, 9042
03/02/2020,14:46,1.4235,1.4255,1.4235,1.4255, 7390
03/02/2020,14:47,1.4265,1.4275,1.4265,1.4275, 3323
03/02/2020,14:48,1.4256,1.4256,1.4256,1.4256, 1317
03/02/2020,14:50,1.4285,1.432,1.428,1.432, 8907
03/02/2020,14:51,1.432,1.433,1.432,1.433, 3230
03/02/2020,14:52,1.4355,1.4355,1.4355,1.4355, 1332
03/02/2020,14:54,1.436,1.436,1.436,1.436, 727
03/02/2020,14:56,1.435,1.4365,1.435,1.4365, 1523
03/02/2020,14:56,1.4385,1.4385,1.4385,1.4385, 594
03/02/2020,14:58,1.4412,1.443,1.4395,1.4395, 4182
03/02/2020,15:01,1.4402,1.4415,1.4402,1.4415, 12625
03/02/2020,15:03,1.4425,1.4425,1.4425,1.4425, 1172
03/02/2020,15:07,1.445,1.4455,1.4425,1.4425, 1191
03/02/2020,15:07,1.4445,1.4445,1.4445,1.4445, 6945
03/02/2020,15:09,1.4425,1.444,1.4385,1.4385, 29670
03/02/2020,15:10,1.4399,1.442,1.4393,1.442, 12840
03/02/2020,15:10,1.443,1.4445,1.443,1.4445, 1103
03/02/2020,15:12,1.4415,1.442,1.4415,1.4415, 3306
03/02/2020,15:14,1.4415,1.442,1.439,1.442, 8916
03/02/2020,15:16,1.4395,1.441,1.4395,1.441, 5195
03/02/2020,15:18,1.4395,1.4395,1.4395,1.4395, 2004
03/02/2020,15:19,1.44,1.4425,1.44,1.4425, 12790
03/02/2020,15:20,1.446,1.446,1.446,1.446, 3600
03/02/2020,15:21,1.445,1.445,1.445,1.445, 771
03/02/2020,15:23,1.443,1.4455,1.443,1.4455, 2809
03/02/2020,15:24,1.446,1.4475,1.446,1.4475, 10147
03/02/2020,15:25,1.4475,1.4475,1.4475,1.4475, 781
03/02/2020,15:25,1.4475,1.4475,1.4475,1.4475, 99
03/02/2020,15:27,1.4475,1.448,1.4475,1.448, 1802
03/02/2020,15:29,1.4445,1.4445,1.4413,1.4413, 42413
03/02/2020,15:30,1.4435,1.445,1.4435,1.445, 5851
03/02/2020,15:31,1.4435,1.445,1.4435,1.445, 2329
03/02/2020,15:32,1.4435,1.4435,1.4415,1.4415, 6257
03/02/2020,15:33,1.442,1.442,1.442,1.442, 666
03/02/2020,15:34,1.442,1.442,1.442,1.442, 1158
03/02/2020,15:35,1.4395,1.44,1.4395,1.4395, 1170
03/02/2020,15:36,1.439,1.439,1.439,1.439, 1425
03/02/2020,15:37,1.438,1.438,1.438,1.438, 889
03/02/2020,15:38,1.44,1.44,1.4365,1.4365, 27401
03/02/2020,15:39,1.4365,1.4365,1.4365,1.4365, 2717
03/02/2020,15:41,1.436,1.4375,1.4345,1.4365, 14999
03/02/2020,15:42,1.4365,1.4415,1.436,1.4415, 9052
03/02/2020,15:43,1.441,1.442,1.44,1.44, 1652
03/02/2020,15:44,1.4405,1.443,1.4405,1.443, 3550
03/02/2020,15:45,1.4415,1.4415,1.4415,1.4415, 1296
03/02/2020,15:38,1.4365,1.4365,1.4365,1.4365, 1278
03/02/2020,15:52,1.4385,1.4385,1.4385,1.4385, 767
03/02/2020,15:53,1.4365,1.4365,1.436,1.4365, 3113
03/02/2020,15:54,1.4385,1.44,1.4385,1.44, 4076
03/02/2020,15:55,1.4415,1.4445,1.4415,1.4445, 4091
03/02/2020,15:56,1.4425,1.443,1.4425,1.443, 1453
03/02/2020,15:57,1.444,1.444,1.4425,1.4425, 735
03/02/2020,15:59,1.441,1.441,1.441,1.441, 7785
03/02/2020,16:00,1.439,1.439,1.439,1.439, 2688
03/02/2020,16:01,1.44,1.44,1.438,1.438, 7389
03/02/2020,16:02,1.4383,1.4383,1.4383,1.4383, 686
03/02/2020,16:03,1.4365,1.4365,1.4345,1.4365, 2990
03/02/2020,16:04,1.435,1.4375,1.435,1.4375, 12044
03/02/2020,16:05,1.435,1.4355,1.4335,1.4335, 5104
03/02/2020,16:05,1.4335,1.434,1.4335,1.434, 4804
03/02/2020,16:06,1.433,1.433,1.432,1.432, 8105
03/02/2020,16:08,1.4335,1.435,1.433,1.435, 14840
03/02/2020,16:09,1.4355,1.436,1.434,1.434, 6262
03/02/2020,16:10,1.436,1.437,1.436,1.436, 7473
03/02/2020,16:10,1.436,1.436,1.436,1.436, 1974
03/02/2020,16:11,1.4375,1.44,1.4375,1.44, 5480
03/02/2020,16:12,1.4405,1.4405,1.439,1.439, 2065
03/02/2020,16:14,1.4415,1.4415,1.4415,1.4415, 948
03/02/2020,16:14,1.442,1.442,1.442,1.442, 3574
03/02/2020,16:16,1.4435,1.444,1.442,1.442, 6421
03/02/2020,16:17,1.4415,1.442,1.4395,1.4395, 7123
03/02/2020,16:18,1.438,1.44,1.4375,1.44, 5154
03/02/2020,16:19,1.439,1.4395,1.439,1.4395, 3558
03/02/2020,16:20,1.4395,1.4405,1.4395,1.4405, 1298
03/02/2020,16:21,1.4398,1.4398,1.4398,1.4398, 3
03/02/2020,16:22,1.44,1.441,1.438,1.4385, 8345
03/02/2020,16:23,1.4375,1.4385,1.437,1.438, 1900
03/02/2020,16:25,1.4385,1.439,1.437,1.438, 8283
03/02/2020,16:26,1.439,1.441,1.439,1.441, 2677
03/02/2020,16:28,1.4405,1.4405,1.4405,1.4405, 3236
03/02/2020,16:29,1.441,1.443,1.441,1.443, 5100
03/02/2020,16:30,1.4415,1.4423,1.441,1.441, 6050
03/02/2020,16:31,1.4425,1.4425,1.4425,1.4425, 212
03/02/2020,16:32,1.4405,1.4405,1.4385,1.4395, 11518
03/02/2020,16:33,1.4385,1.4385,1.437,1.4385, 15730
03/02/2020,16:34,1.438,1.44,1.4375,1.44, 8239
03/02/2020,16:34,1.4405,1.441,1.4405,1.441, 2166
03/02/2020,16:36,1.4405,1.4405,1.439,1.439, 8374
03/02/2020,16:37,1.44,1.44,1.44,1.44, 1983
03/02/2020,16:38,1.4405,1.442,1.4405,1.4415, 12442
03/02/2020,16:39,1.441,1.441,1.441,1.441, 705
03/02/2020,16:39,1.4405,1.4405,1.4405,1.4405, 467
03/02/2020,16:41,1.4415,1.4425,1.4415,1.4425, 5509
03/02/2020,16:42,1.4425,1.4425,1.442,1.442, 2123
03/02/2020,16:43,1.441,1.441,1.439,1.4405, 17909
03/02/2020,16:44,1.4405,1.4405,1.4405,1.4405, 3493
03/02/2020,16:45,1.4405,1.4405,1.4405,1.4405, 2158
03/02/2020,16:47,1.4415,1.443,1.4412,1.443, 11989
03/02/2020,16:48,1.444,1.444,1.444,1.444, 210
03/02/2020,16:49,1.4435,1.445,1.4435,1.445, 1304
03/02/2020,16:50,1.445,1.445,1.445,1.445, 622
03/02/2020,16:51,1.4445,1.4455,1.4445,1.4455, 2653
03/02/2020,16:53,1.445,1.446,1.445,1.446, 11420
03/02/2020,16:53,1.447,1.4485,1.447,1.4485, 8741
03/02/2020,16:55,1.4485,1.451,1.4485,1.451, 1236
03/02/2020,16:56,1.4475,1.448,1.447,1.4475, 9379
03/02/2020,16:57,1.4485,1.4485,1.4455,1.4455, 3788
03/02/2020,16:57,1.447,1.447,1.447,1.447, 2732
03/02/2020,16:58,1.4455,1.4455,1.4425,1.4425, 1892
03/02/2020,16:59,1.4435,1.4435,1.442,1.442, 9982
03/02/2020,17:00,1.443,1.443,1.443,1.443, 3645
03/02/2020,17:01,1.4435,1.445,1.4435,1.444, 14946
03/02/2020,17:02,1.445,1.445,1.444,1.4445, 7866
03/02/2020,17:03,1.4455,1.447,1.4455,1.447, 12528
03/02/2020,17:04,1.4465,1.4465,1.445,1.4465, 18401
03/02/2020,17:05,1.4465,1.4465,1.446,1.4465, 5786
03/02/2020,17:06,1.4465,1.4465,1.445,1.445, 16175
03/02/2020,17:07,1.444,1.4445,1.4435,1.444, 7767
03/02/2020,17:09,1.443,1.444,1.443,1.444, 4664
03/02/2020,17:10,1.4435,1.4435,1.4415,1.442, 6230
03/02/2020,17:11,1.442,1.4435,1.442,1.4435, 6824
03/02/2020,17:11,1.4445,1.4445,1.444,1.444, 1394
03/02/2020,17:12,1.445,1.447,1.445,1.447, 2169
03/02/2020,17:13,1.4475,1.4475,1.446,1.447, 5092
03/02/2020,17:14,1.446,1.446,1.4455,1.4455, 4089
03/02/2020,17:15,1.4455,1.4485,1.4455,1.448, 15543
03/02/2020,17:17,1.447,1.4475,1.446,1.4475, 22681
03/02/2020,17:17,1.4475,1.4475,1.447,1.4475, 4013
03/02/2020,17:19,1.4475,1.4485,1.4455,1.446, 17181
03/02/2020,17:20,1.445,1.4455,1.445,1.445, 3218
03/02/2020,17:21,1.4445,1.4455,1.4445,1.445, 16922
03/02/2020,17:23,1.445,1.4455,1.444,1.444, 15982
03/02/2020,17:24,1.4441,1.4441,1.443,1.4435, 14324
03/02/2020,17:25,1.444,1.444,1.4435,1.4435, 18916
03/02/2020,17:25,1.443,1.443,1.443,1.443, 2811
03/02/2020,17:27,1.442,1.443,1.4415,1.442, 46416
03/02/2020,17:28,1.443,1.443,1.441,1.4415, 14258
03/02/2020,17:29,1.441,1.4415,1.4405,1.4415, 8814
03/02/2020,17:30,1.4415,1.442,1.4405,1.441, 10100
03/02/2020,17:30,1.4405,1.441,1.439,1.439, 2542
03/02/2020,17:36,1.4345,1.4345,1.4345,1.4345, 1510100
03/03/2020,09:02,1.476,1.476,1.4591,1.4595, 4465
03/03/2020,09:03,1.461,1.4695,1.461,1.4695, 8402
03/03/2020,09:04,1.4755,1.4795,1.4755,1.4795, 4123
03/03/2020,09:05,1.4795,1.5025,1.478,1.5025, 95379
03/03/2020,09:06,1.505,1.511,1.4965,1.4965, 26457
03/03/2020,09:07,1.49,1.49,1.484,1.4845, 9687
03/03/2020,09:08,1.483,1.483,1.477,1.477, 10442
03/03/2020,09:08,1.4775,1.4775,1.47,1.47, 6782
03/03/2020,09:10,1.4725,1.481,1.4725,1.481, 30057
03/03/2020,09:11,1.481,1.484,1.481,1.4815, 6168
03/03/2020,09:12,1.48,1.4805,1.479,1.4805, 6795
03/03/2020,09:13,1.48,1.48,1.48,1.48, 1757
03/03/2020,09:14,1.484,1.484,1.4825,1.4825, 2668
03/03/2020,09:15,1.4835,1.484,1.48,1.48, 11738
03/03/2020,09:16,1.481,1.481,1.478,1.479, 3931
03/03/2020,09:17,1.4775,1.479,1.4775,1.479, 898
03/03/2020,09:17,1.478,1.48,1.478,1.48, 10021
03/03/2020,09:18,1.482,1.484,1.482,1.484, 5031
03/03/2020,09:20,1.483,1.484,1.483,1.484, 8271
03/03/2020,09:21,1.484,1.484,1.4825,1.4825, 31058
03/03/2020,09:22,1.4835,1.484,1.481,1.481, 22553
03/03/2020,09:23,1.4805,1.4825,1.4793,1.4825, 4623
03/03/2020,09:25,1.4825,1.484,1.4825,1.484, 5230
03/03/2020,09:26,1.484,1.484,1.4815,1.4815, 7262
03/03/2020,09:28,1.48,1.48,1.478,1.478, 4092
03/03/2020,09:28,1.4795,1.4795,1.4795,1.4795, 1783
03/03/2020,09:31,1.477,1.482,1.477,1.482, 11025
03/03/2020,09:31,1.4825,1.4825,1.4825,1.4825, 394
03/03/2020,09:33,1.482,1.4825,1.481,1.482, 7814
03/03/2020,09:34,1.4815,1.484,1.4815,1.484, 6605
03/03/2020,09:35,1.484,1.485,1.483,1.484, 15917
03/03/2020,09:36,1.483,1.483,1.483,1.483, 1418
03/03/2020,09:36,1.483,1.485,1.483,1.485, 12080
03/03/2020,09:37,1.486,1.4875,1.4855,1.487, 13856
03/03/2020,09:40,1.4865,1.4865,1.4855,1.4865, 3944
03/03/2020,09:41,1.485,1.485,1.4835,1.4845, 4029
03/03/2020,09:42,1.4865,1.4875,1.4865,1.4875, 7803
03/03/2020,09:42,1.486,1.487,1.4855,1.487, 2660
03/03/2020,09:44,1.4865,1.4875,1.4865,1.4875, 43624
03/03/2020,09:45,1.4875,1.489,1.4875,1.489, 29359
03/03/2020,09:46,1.4915,1.4925,1.4875,1.4875, 56953
03/03/2020,09:46,1.4875,1.4875,1.486,1.486, 3333
03/03/2020,09:48,1.4875,1.488,1.4874,1.488, 4479
03/03/2020,09:49,1.49,1.495,1.49,1.495, 16048
03/03/2020,09:49,1.4935,1.4935,1.4925,1.4925, 8075
03/03/2020,09:50,1.489,1.489,1.488,1.489, 2387
03/03/2020,09:52,1.4855,1.4865,1.484,1.4865, 11013
03/03/2020,09:52,1.487,1.487,1.487,1.487, 294
03/03/2020,09:54,1.485,1.485,1.4845,1.4845, 4673
03/03/2020,09:55,1.4835,1.4835,1.4805,1.481, 21327
03/03/2020,09:56,1.481,1.483,1.481,1.4825, 55048
03/03/2020,09:57,1.4845,1.4855,1.4845,1.4855, 794
03/03/2020,09:58,1.485,1.485,1.484,1.484, 6631
03/03/2020,09:59,1.4845,1.4845,1.4835,1.484, 4160
03/03/2020,10:00,1.4855,1.4865,1.4855,1.4865, 2190
03/03/2020,10:01,1.484,1.484,1.482,1.484, 16811
03/03/2020,10:01,1.484,1.484,1.484,1.484, 774
03/03/2020,10:02,1.483,1.483,1.482,1.4825, 9780
03/03/2020,10:03,1.483,1.483,1.483,1.483, 290
03/03/2020,10:05,1.482,1.482,1.4805,1.4805, 7476
03/03/2020,10:06,1.48,1.48,1.479,1.48, 5732
03/03/2020,10:06,1.481,1.4825,1.481,1.4825, 2988
03/03/2020,10:08,1.4835,1.4865,1.4835,1.4835, 7866
03/03/2020,10:10,1.487,1.4875,1.487,1.4875, 2404
03/03/2020,10:11,1.49,1.49,1.49,1.49, 1000
03/03/2020,10:12,1.49,1.49,1.489,1.489, 2350
03/03/2020,10:13,1.4885,1.4885,1.488,1.4885, 5374
03/03/2020,10:14,1.4895,1.491,1.489,1.491, 7852
03/03/2020,10:15,1.4915,1.4915,1.4915,1.4915, 2149
03/03/2020,10:16,1.491,1.491,1.4906,1.491, 2921
03/03/2020,10:17,1.4925,1.493,1.4925,1.493, 846
03/03/2020,10:18,1.4915,1.4925,1.4895,1.4895, 23528
03/03/2020,10:19,1.49,1.4925,1.49,1.4915, 44876
03/03/2020,10:19,1.489,1.489,1.489,1.489, 3000
03/03/2020,10:21,1.492,1.494,1.492,1.494, 8512
03/03/2020,10:23,1.4935,1.494,1.4935,1.4935, 8811
03/03/2020,10:24,1.491,1.491,1.4885,1.4885, 7334
03/03/2020,10:26,1.4875,1.4875,1.4865,1.487, 8606
03/03/2020,10:26,1.4875,1.4895,1.4875,1.489, 5270
03/03/2020,10:29,1.4905,1.491,1.4895,1.491, 16276
03/03/2020,10:30,1.4915,1.4935,1.49,1.4915, 15602
03/03/2020,10:31,1.492,1.496,1.492,1.496, 8357
03/03/2020,10:32,1.4945,1.4945,1.4935,1.494, 16270
03/03/2020,10:33,1.4945,1.495,1.4945,1.495, 3803
03/03/2020,10:34,1.496,1.4965,1.496,1.4965, 565
03/03/2020,10:34,1.497,1.4975,1.497,1.4975, 582
03/03/2020,10:35,1.4975,1.4975,1.4975,1.4975, 849
03/03/2020,10:37,1.4971,1.4971,1.496,1.496, 6662
03/03/2020,10:38,1.4945,1.4945,1.4945,1.4945, 2841
03/03/2020,10:38,1.4955,1.4955,1.4955,1.4955, 709
03/03/2020,10:39,1.4955,1.497,1.4955,1.497, 1530
03/03/2020,10:41,1.4965,1.4965,1.492,1.492, 34726
03/03/2020,10:42,1.4925,1.494,1.4925,1.494, 11749
03/03/2020,10:43,1.494,1.495,1.494,1.4945, 13855
03/03/2020,10:44,1.4965,1.4965,1.495,1.495, 6693
03/03/2020,10:44,1.493,1.493,1.493,1.493, 437
03/03/2020,10:45,1.493,1.494,1.493,1.494, 6026
03/03/2020,10:47,1.4925,1.494,1.4925,1.494, 5048
03/03/2020,10:48,1.4945,1.4955,1.4945,1.4955, 5734
03/03/2020,10:49,1.4965,1.4965,1.495,1.4955, 5880
03/03/2020,10:51,1.496,1.4965,1.496,1.4965, 7369
03/03/2020,10:51,1.4965,1.4975,1.4965,1.497, 9805
03/03/2020,10:53,1.498,1.498,1.498,1.498, 2412
03/03/2020,10:54,1.4965,1.4965,1.4965,1.4965, 5150
03/03/2020,10:55,1.4965,1.4965,1.4965,1.4965, 2365
03/03/2020,10:56,1.4966,1.4966,1.4955,1.4955, 20464
03/03/2020,10:58,1.4955,1.4955,1.4925,1.4925, 6169
03/03/2020,10:59,1.4939,1.4939,1.492,1.492, 7897
03/03/2020,11:00,1.493,1.493,1.4915,1.4915, 6568
03/03/2020,11:01,1.4935,1.494,1.4935,1.494, 2400
03/03/2020,11:02,1.4945,1.495,1.494,1.495, 5527
03/03/2020,11:04,1.4975,1.498,1.4975,1.498, 7948
03/03/2020,11:06,1.4965,1.497,1.4965,1.497, 4669
03/03/2020,11:07,1.496,1.4975,1.4955,1.4965, 10643
03/03/2020,11:08,1.4945,1.4945,1.4945,1.4945, 1183
03/03/2020,11:08,1.493,1.493,1.493,1.493, 1100
03/03/2020,11:10,1.4935,1.494,1.4935,1.494, 4077
03/03/2020,11:12,1.4955,1.496,1.4955,1.496, 3743
03/03/2020,11:13,1.496,1.4975,1.496,1.4975, 5028
03/03/2020,11:15,1.4975,1.4975,1.4955,1.4955, 15911
03/03/2020,11:16,1.496,1.498,1.496,1.498, 18246
03/03/2020,11:17,1.4995,1.4995,1.4985,1.4992, 8704
03/03/2020,11:18,1.499,1.4995,1.499,1.499, 25317
03/03/2020,11:19,1.4995,1.502,1.499,1.502, 109524
03/03/2020,11:19,1.5035,1.5045,1.5035,1.5035, 3413
03/03/2020,11:20,1.504,1.504,1.504,1.504, 6923
03/03/2020,11:22,1.504,1.506,1.504,1.505, 11730
03/03/2020,11:23,1.5053,1.5053,1.5053,1.5053, 1000
03/03/2020,11:25,1.5055,1.506,1.5055,1.5055, 1919
03/03/2020,11:26,1.5065,1.507,1.5065,1.5065, 8528
03/03/2020,11:27,1.506,1.506,1.5055,1.5055, 7668
03/03/2020,11:28,1.503,1.503,1.503,1.503, 8111
03/03/2020,11:28,1.503,1.5033,1.503,1.5033, 38709
03/03/2020,11:30,1.504,1.504,1.5035,1.5035, 4618
03/03/2020,11:31,1.5035,1.5035,1.502,1.503, 6121
03/03/2020,11:32,1.502,1.5025,1.502,1.5025, 13237
03/03/2020,11:32,1.502,1.502,1.502,1.502, 2874
03/03/2020,11:34,1.5015,1.502,1.5015,1.502, 2686
03/03/2020,11:35,1.502,1.5025,1.502,1.5025, 39981
03/03/2020,11:36,1.502,1.503,1.502,1.503, 4102
03/03/2020,11:37,1.502,1.503,1.502,1.503, 4096
03/03/2020,11:38,1.502,1.502,1.499,1.4995, 8513
03/03/2020,11:39,1.4995,1.4995,1.498,1.4995, 8511
03/03/2020,11:40,1.5005,1.501,1.5005,1.501, 711
03/03/2020,11:40,1.502,1.502,1.501,1.502, 32302
03/03/2020,11:43,1.5015,1.502,1.5015,1.502, 21674
03/03/2020,11:45,1.502,1.5055,1.502,1.504, 42191
03/03/2020,11:46,1.504,1.504,1.499,1.499, 13193
03/03/2020,11:47,1.501,1.503,1.501,1.502, 12317
03/03/2020,11:47,1.5015,1.502,1.5005,1.5005, 8058
03/03/2020,11:48,1.5005,1.5005,1.5005,1.5005, 1479
03/03/2020,11:50,1.501,1.503,1.501,1.5025, 4668
03/03/2020,11:50,1.5025,1.5025,1.5025,1.5025, 8776
03/03/2020,11:53,1.5035,1.5035,1.5025,1.5035, 2771
03/03/2020,11:53,1.5025,1.5025,1.501,1.501, 6231
03/03/2020,11:54,1.5015,1.502,1.5015,1.502, 3392
03/03/2020,11:56,1.5025,1.5025,1.502,1.5025, 8763
03/03/2020,11:58,1.5025,1.5025,1.5025,1.5025, 3658
03/03/2020,11:58,1.5055,1.5055,1.5035,1.5055, 4920
03/03/2020,12:01,1.5025,1.5025,1.502,1.5025, 7181
03/03/2020,12:02,1.501,1.5015,1.4995,1.4995, 11094
03/03/2020,12:03,1.5005,1.501,1.5005,1.5005, 7124
03/03/2020,12:03,1.5005,1.5005,1.4995,1.4995, 6162
03/03/2020,12:05,1.5,1.5,1.5,1.5, 8560
03/03/2020,12:06,1.5005,1.505,1.5005,1.5023, 39357
03/03/2020,12:07,1.5035,1.5065,1.5035,1.5045, 23736
03/03/2020,12:08,1.5045,1.5055,1.5045,1.5045, 8109
03/03/2020,12:09,1.5025,1.5025,1.5025,1.5025, 3809
03/03/2020,12:10,1.502,1.502,1.5005,1.5005, 7730
03/03/2020,12:11,1.5015,1.5025,1.5015,1.5015, 10681
03/03/2020,12:11,1.5015,1.5025,1.4995,1.4995, 12690
03/03/2020,12:12,1.4995,1.4995,1.498,1.498, 1302
03/03/2020,12:13,1.497,1.497,1.497,1.497, 1550
03/03/2020,12:15,1.4965,1.4965,1.4925,1.4925, 27856
03/03/2020,12:16,1.493,1.4935,1.4925,1.4925, 6080
03/03/2020,12:17,1.493,1.495,1.492,1.495, 22067
03/03/2020,12:19,1.4945,1.4945,1.494,1.494, 3317
03/03/2020,12:21,1.4955,1.4955,1.495,1.495, 3903
03/03/2020,12:21,1.494,1.494,1.4935,1.494, 3769
03/03/2020,12:24,1.494,1.4945,1.494,1.4945, 1040
03/03/2020,12:24,1.4945,1.4945,1.4945,1.4945, 451
03/03/2020,12:26,1.494,1.494,1.4895,1.4895, 9347
03/03/2020,12:27,1.489,1.489,1.488,1.4885, 4332
03/03/2020,12:28,1.4875,1.4875,1.487,1.487, 5571
03/03/2020,12:29,1.487,1.487,1.4855,1.4855, 11567
03/03/2020,12:30,1.485,1.486,1.485,1.486, 5278
03/03/2020,12:31,1.485,1.486,1.485,1.486, 9463
03/03/2020,12:32,1.4875,1.4917,1.4875,1.4917, 8345
03/03/2020,12:33,1.4925,1.493,1.4925,1.493, 5290
03/03/2020,12:34,1.4935,1.4935,1.4935,1.4935, 2088
03/03/2020,12:35,1.493,1.493,1.493,1.493, 1886
03/03/2020,12:36,1.4931,1.4931,1.4931,1.4931, 1300
03/03/2020,12:38,1.494,1.495,1.494,1.495, 5953
03/03/2020,12:38,1.4955,1.4955,1.4955,1.4955, 1450
03/03/2020,12:40,1.4955,1.4955,1.494,1.495, 7565
03/03/2020,12:41,1.4945,1.4945,1.494,1.494, 2116
03/03/2020,12:41,1.494,1.494,1.494,1.494, 624
03/03/2020,12:42,1.4925,1.4925,1.4925,1.4925, 1742
03/03/2020,12:43,1.492,1.492,1.4905,1.4905, 4453
03/03/2020,12:45,1.4925,1.4935,1.492,1.4935, 10646
03/03/2020,12:47,1.4935,1.4935,1.4935,1.4935, 3151
03/03/2020,12:48,1.4945,1.496,1.4945,1.496, 4751
03/03/2020,12:49,1.4957,1.4957,1.4957,1.4957, 6700
03/03/2020,12:50,1.4945,1.4945,1.4945,1.4945, 1615
03/03/2020,12:50,1.496,1.496,1.4955,1.4955, 2247
03/03/2020,12:52,1.4965,1.4975,1.4965,1.4975, 3147
03/03/2020,12:56,1.498,1.498,1.498,1.498, 1098
03/03/2020,12:58,1.497,1.497,1.497,1.497, 4155
03/03/2020,12:58,1.496,1.496,1.4955,1.4955, 828
03/03/2020,13:00,1.4945,1.4945,1.4945,1.4945, 212
03/03/2020,13:00,1.4945,1.4955,1.494,1.4955, 12505
03/03/2020,13:04,1.4975,1.498,1.497,1.4975, 11673
03/03/2020,13:05,1.498,1.499,1.498,1.499, 4445
03/03/2020,13:05,1.501,1.501,1.501,1.501, 1707
03/03/2020,13:07,1.498,1.498,1.498,1.498, 6083
03/03/2020,13:08,1.498,1.498,1.498,1.498, 1894
03/03/2020,13:08,1.4972,1.4972,1.4972,1.4972, 3000
03/03/2020,13:10,1.4985,1.499,1.4985,1.4985, 3718
03/03/2020,13:10,1.4985,1.4985,1.4975,1.4975, 1912
03/03/2020,13:12,1.4975,1.498,1.4975,1.498, 2588
03/03/2020,13:13,1.499,1.5,1.499,1.5, 5913
03/03/2020,13:15,1.5002,1.5002,1.498,1.4985, 5213
03/03/2020,13:16,1.5,1.5,1.499,1.5, 3797
03/03/2020,13:17,1.5025,1.5025,1.5025,1.5025, 1149
03/03/2020,13:18,1.503,1.503,1.503,1.503, 467
03/03/2020,13:19,1.503,1.503,1.501,1.501, 3222
03/03/2020,13:22,1.499,1.499,1.497,1.497, 5011
03/03/2020,13:22,1.496,1.496,1.496,1.496, 1996
03/03/2020,13:23,1.4975,1.4975,1.496,1.496, 6835
03/03/2020,13:24,1.4955,1.4975,1.4955,1.4975, 6586
03/03/2020,13:26,1.4965,1.4966,1.4965,1.4966, 7362
03/03/2020,13:27,1.496,1.496,1.4945,1.495, 9742
03/03/2020,13:28,1.496,1.496,1.4945,1.4955, 17708
03/03/2020,13:29,1.495,1.495,1.4945,1.4945, 4912
03/03/2020,13:31,1.4955,1.4955,1.4955,1.4955, 1649
03/03/2020,13:32,1.496,1.496,1.4955,1.496, 4108
03/03/2020,13:33,1.497,1.498,1.497,1.498, 8534
03/03/2020,13:34,1.497,1.497,1.496,1.496, 4517
03/03/2020,13:35,1.494,1.4945,1.493,1.4945, 5960
03/03/2020,13:36,1.4945,1.4945,1.493,1.493, 5334
03/03/2020,13:36,1.492,1.492,1.492,1.492, 783
03/03/2020,13:37,1.4905,1.4905,1.488,1.4885, 4371
03/03/2020,13:38,1.488,1.489,1.488,1.489, 3424
03/03/2020,13:39,1.489,1.4895,1.4885,1.4885, 5079
03/03/2020,13:40,1.487,1.487,1.4865,1.4865, 1922
03/03/2020,13:41,1.4865,1.487,1.4865,1.487, 8151
03/03/2020,13:42,1.4865,1.4865,1.4845,1.4845, 9918
03/03/2020,13:43,1.484,1.4846,1.484,1.4846, 6633
03/03/2020,13:44,1.4855,1.486,1.485,1.486, 6098
03/03/2020,13:45,1.485,1.485,1.482,1.482, 5780
03/03/2020,13:46,1.483,1.483,1.481,1.481, 822
03/03/2020,13:48,1.4798,1.481,1.479,1.481, 8918
03/03/2020,13:49,1.481,1.4835,1.4808,1.4835, 22144
03/03/2020,13:49,1.484,1.4845,1.484,1.4845, 961
03/03/2020,13:51,1.4835,1.4845,1.4835,1.4845, 1780
03/03/2020,13:52,1.4845,1.4845,1.4835,1.4835, 1456
03/03/2020,13:53,1.483,1.484,1.483,1.4835, 6237
03/03/2020,13:54,1.4835,1.4835,1.4825,1.4825, 3764
03/03/2020,13:56,1.482,1.482,1.481,1.482, 3896
03/03/2020,13:57,1.4825,1.483,1.482,1.4825, 12777
03/03/2020,13:58,1.483,1.484,1.482,1.484, 20874
03/03/2020,13:59,1.4865,1.4865,1.4865,1.4865, 132
03/03/2020,14:01,1.4865,1.487,1.4865,1.487, 1603
03/03/2020,14:01,1.4855,1.486,1.485,1.4855, 26348
03/03/2020,14:03,1.484,1.484,1.4832,1.4832, 2335
03/03/2020,14:03,1.484,1.4855,1.4838,1.4838, 14146
03/03/2020,14:05,1.483,1.485,1.483,1.485, 3513
03/03/2020,14:06,1.4845,1.4845,1.4845,1.4845, 1966
03/03/2020,14:07,1.4825,1.4825,1.481,1.481, 4267
03/03/2020,14:08,1.482,1.482,1.482,1.482, 2750
03/03/2020,14:10,1.482,1.4825,1.4815,1.4825, 4417
03/03/2020,14:12,1.483,1.484,1.483,1.484, 7554
03/03/2020,14:12,1.484,1.485,1.483,1.483, 3799
03/03/2020,14:14,1.4825,1.483,1.4825,1.483, 3650
03/03/2020,14:15,1.484,1.484,1.4835,1.484, 5665
03/03/2020,14:15,1.4845,1.4845,1.4845,1.4845, 481
03/03/2020,14:16,1.4835,1.4835,1.4835,1.4835, 2261
03/03/2020,14:18,1.482,1.482,1.48,1.48, 11556
03/03/2020,14:20,1.481,1.482,1.481,1.482, 8746
03/03/2020,14:21,1.482,1.483,1.482,1.483, 2315
03/03/2020,14:22,1.484,1.4845,1.484,1.4845, 2477
03/03/2020,14:23,1.485,1.485,1.484,1.484, 4821
03/03/2020,14:23,1.4855,1.4855,1.485,1.485, 4853
03/03/2020,14:24,1.4855,1.4865,1.4855,1.486, 5958
03/03/2020,14:27,1.4875,1.489,1.4875,1.489, 13127
03/03/2020,14:28,1.491,1.491,1.491,1.491, 849
03/03/2020,14:29,1.4905,1.4905,1.4895,1.4895, 2878
03/03/2020,14:29,1.4895,1.4895,1.4895,1.4895, 103
03/03/2020,14:30,1.488,1.488,1.4875,1.4875, 1789
03/03/2020,14:31,1.4875,1.4875,1.4875,1.4875, 4210
03/03/2020,14:32,1.4875,1.4875,1.4875,1.4875, 468
03/03/2020,14:34,1.4875,1.488,1.487,1.488, 5050
03/03/2020,14:34,1.4885,1.4885,1.488,1.488, 3589
03/03/2020,14:37,1.4885,1.4885,1.4885,1.4885, 740
03/03/2020,14:37,1.4885,1.4885,1.488,1.4885, 2737
03/03/2020,14:38,1.4875,1.4875,1.4875,1.4875, 666
03/03/2020,14:40,1.487,1.487,1.4825,1.4825, 25382
03/03/2020,14:41,1.4825,1.4825,1.482,1.4825, 9431
03/03/2020,14:42,1.4825,1.4845,1.4825,1.4845, 8172
03/03/2020,14:43,1.4825,1.4825,1.4825,1.4825, 481
03/03/2020,14:44,1.482,1.482,1.482,1.482, 732
03/03/2020,14:45,1.482,1.4835,1.482,1.483, 11973
03/03/2020,14:46,1.4845,1.4845,1.4825,1.4825, 4951
03/03/2020,14:46,1.4837,1.4837,1.4825,1.4825, 8516
03/03/2020,14:47,1.483,1.483,1.483,1.483, 978
03/03/2020,14:49,1.484,1.4845,1.4815,1.4815, 3080
03/03/2020,14:50,1.482,1.482,1.482,1.482, 1811
03/03/2020,14:51,1.482,1.4825,1.482,1.4825, 5736
03/03/2020,14:51,1.483,1.483,1.483,1.483, 106
03/03/2020,14:53,1.485,1.4855,1.485,1.4855, 338
03/03/2020,14:54,1.4855,1.4855,1.4835,1.484, 7108
03/03/2020,14:55,1.4835,1.4835,1.483,1.483, 2125
03/03/2020,14:57,1.4825,1.4825,1.4825,1.4825, 2764
03/03/2020,14:58,1.4825,1.4825,1.48,1.48, 4573
03/03/2020,14:59,1.4805,1.4825,1.4805,1.4825, 9935
03/03/2020,15:01,1.4825,1.4834,1.4825,1.4834, 9731
03/03/2020,15:02,1.4835,1.4845,1.483,1.483, 9737
03/03/2020,15:03,1.4835,1.4835,1.4835,1.4835, 796
03/03/2020,15:05,1.4825,1.483,1.4825,1.483, 1363
03/03/2020,15:06,1.4835,1.4835,1.4835,1.4835, 901
03/03/2020,15:07,1.4835,1.4835,1.4835,1.4835, 5007
03/03/2020,15:09,1.484,1.485,1.484,1.485, 6125
03/03/2020,15:10,1.485,1.485,1.485,1.485, 2999
03/03/2020,15:11,1.4845,1.4845,1.4825,1.483, 5220
03/03/2020,15:12,1.4835,1.4835,1.4825,1.4825, 3840
03/03/2020,15:13,1.4815,1.482,1.4815,1.482, 3770
03/03/2020,15:14,1.481,1.481,1.4805,1.481, 8748
03/03/2020,15:17,1.4815,1.4825,1.4815,1.4825, 7443
03/03/2020,15:17,1.4835,1.4835,1.4835,1.4835, 8545
03/03/2020,15:18,1.485,1.4855,1.485,1.4855, 7374
03/03/2020,15:20,1.4895,1.4895,1.4895,1.4895, 239
03/03/2020,15:21,1.49,1.49,1.4885,1.489, 5360
03/03/2020,15:22,1.4895,1.4895,1.4895,1.4895, 663
03/03/2020,15:22,1.4895,1.4895,1.4895,1.4895, 2850
03/03/2020,15:23,1.4895,1.49,1.4895,1.49, 3792
03/03/2020,15:24,1.4905,1.493,1.4905,1.493, 3427
03/03/2020,15:25,1.4915,1.4925,1.49,1.4915, 74840
03/03/2020,15:25,1.4905,1.4905,1.4895,1.4895, 8527
03/03/2020,15:26,1.4905,1.4915,1.4905,1.491, 9404
03/03/2020,15:29,1.49,1.49,1.49,1.49, 2344
03/03/2020,15:30,1.49,1.491,1.49,1.491, 2479
03/03/2020,15:31,1.489,1.4895,1.488,1.488, 2620
03/03/2020,15:31,1.488,1.488,1.488,1.488, 1998
03/03/2020,15:32,1.489,1.4915,1.489,1.4905, 15783
03/03/2020,15:33,1.489,1.489,1.489,1.489, 1541
03/03/2020,15:33,1.488,1.488,1.4875,1.4875, 2927
03/03/2020,15:35,1.488,1.488,1.488,1.488, 4857
03/03/2020,15:35,1.487,1.487,1.4865,1.4865, 2638
03/03/2020,15:35,1.4855,1.4855,1.4855,1.4855, 1588
03/03/2020,15:36,1.4845,1.4845,1.484,1.484, 2234
03/03/2020,15:37,1.4835,1.4835,1.4825,1.4825, 4528
03/03/2020,15:38,1.482,1.482,1.482,1.482, 3216
03/03/2020,15:39,1.482,1.483,1.4805,1.482, 22367
03/03/2020,15:39,1.4825,1.486,1.482,1.486, 14226
03/03/2020,15:40,1.487,1.49,1.487,1.49, 15146
03/03/2020,15:40,1.49,1.4905,1.49,1.4905, 3567
03/03/2020,15:41,1.4905,1.4905,1.4895,1.4895, 4726
03/03/2020,15:42,1.489,1.489,1.489,1.489, 721
03/03/2020,15:43,1.4895,1.4905,1.4895,1.4895, 11213
03/03/2020,15:44,1.49,1.49,1.49,1.49, 4106
03/03/2020,15:45,1.489,1.49,1.489,1.49, 5778
03/03/2020,15:45,1.489,1.489,1.489,1.489, 2489
03/03/2020,15:46,1.487,1.488,1.487,1.488, 992
03/03/2020,15:47,1.487,1.487,1.487,1.487, 1143
03/03/2020,15:48,1.487,1.487,1.485,1.485, 22709
03/03/2020,15:49,1.4845,1.4845,1.4805,1.4805, 7313
03/03/2020,15:50,1.4815,1.482,1.48,1.4805, 24107
03/03/2020,15:51,1.4805,1.4825,1.479,1.4825, 22125
03/03/2020,15:52,1.4825,1.4825,1.4805,1.4805, 3099
03/03/2020,15:53,1.4805,1.481,1.48,1.48, 1945
03/03/2020,15:54,1.4795,1.481,1.4785,1.4805, 13717
03/03/2020,15:55,1.48,1.4815,1.479,1.4805, 17494
03/03/2020,15:56,1.481,1.481,1.481,1.481, 5032
03/03/2020,15:58,1.48,1.4815,1.4785,1.4815, 8848
03/03/2020,15:58,1.4815,1.483,1.4815,1.483, 6725
03/03/2020,15:59,1.4855,1.4855,1.4855,1.4855, 1134
03/03/2020,16:01,1.487,1.492,1.4855,1.492, 16598
03/03/2020,16:01,1.497,1.4975,1.497,1.497, 4067
03/03/2020,16:02,1.498,1.498,1.497,1.497, 5074
03/03/2020,16:02,1.5005,1.5005,1.5005,1.5005, 475
03/03/2020,16:04,1.502,1.5025,1.498,1.4995, 48227
03/03/2020,16:05,1.4975,1.498,1.4955,1.4955, 12272
03/03/2020,16:06,1.4955,1.4995,1.495,1.498, 17204
03/03/2020,16:07,1.4975,1.4995,1.494,1.494, 14839
03/03/2020,16:08,1.4935,1.4955,1.491,1.491, 11066
03/03/2020,16:09,1.488,1.4915,1.487,1.49, 20786
03/03/2020,16:10,1.4915,1.4915,1.4915,1.4915, 12
03/03/2020,16:11,1.49,1.49,1.488,1.488, 7246
03/03/2020,16:13,1.486,1.4875,1.4855,1.4875, 32902
03/03/2020,16:14,1.4875,1.488,1.486,1.488, 21646
03/03/2020,16:15,1.4875,1.4885,1.4865,1.488, 7567
03/03/2020,16:16,1.4875,1.4875,1.4845,1.4845, 3024
03/03/2020,16:17,1.483,1.483,1.48,1.4815, 41566
03/03/2020,16:19,1.482,1.4835,1.4795,1.482, 63712
03/03/2020,16:19,1.4825,1.4825,1.4825,1.4825, 7974
03/03/2020,16:20,1.4835,1.485,1.4835,1.485, 4809
03/03/2020,16:21,1.484,1.4855,1.482,1.485, 38503
03/03/2020,16:23,1.4845,1.485,1.479,1.485, 30869
03/03/2020,16:25,1.4865,1.489,1.4865,1.489, 6636
03/03/2020,16:26,1.4905,1.492,1.4905,1.492, 8280
03/03/2020,16:27,1.492,1.4925,1.491,1.4925, 16084
03/03/2020,16:28,1.494,1.4955,1.493,1.4935, 15816
03/03/2020,16:30,1.4925,1.4925,1.4865,1.489, 16509
03/03/2020,16:31,1.489,1.491,1.489,1.4905, 9807
03/03/2020,16:33,1.489,1.489,1.487,1.488, 7945
03/03/2020,16:34,1.4885,1.491,1.488,1.491, 8907
03/03/2020,16:35,1.4895,1.4895,1.4895,1.4895, 8589
03/03/2020,16:36,1.4905,1.4905,1.4905,1.4905, 884
03/03/2020,16:37,1.4905,1.4905,1.4895,1.4905, 7456
03/03/2020,16:37,1.491,1.4915,1.491,1.4915, 608
03/03/2020,16:39,1.493,1.4955,1.493,1.4955, 7367
03/03/2020,16:41,1.4955,1.4955,1.494,1.4955, 14172
03/03/2020,16:43,1.4945,1.4955,1.4945,1.4945, 4129
03/03/2020,16:44,1.495,1.4975,1.495,1.4975, 12497
03/03/2020,16:48,1.499,1.506,1.499,1.5035, 17912
03/03/2020,16:48,1.503,1.503,1.502,1.503, 14747
03/03/2020,16:48,1.5015,1.503,1.5015,1.503, 10764
03/03/2020,16:51,1.5005,1.5015,1.4995,1.5, 13745
03/03/2020,16:53,1.5015,1.5045,1.5005,1.504, 32741
03/03/2020,16:55,1.5035,1.505,1.5035,1.505, 5018
03/03/2020,16:57,1.504,1.5075,1.504,1.5065, 47521
03/03/2020,16:59,1.5075,1.5125,1.5075,1.5125, 19873
03/03/2020,17:00,1.513,1.5155,1.513,1.515, 13252
03/03/2020,17:01,1.515,1.515,1.512,1.514, 53016
03/03/2020,17:03,1.5135,1.5135,1.51,1.511, 8666
03/03/2020,17:04,1.511,1.511,1.5094,1.511, 18573
03/03/2020,17:06,1.5066,1.511,1.5066,1.508, 53991
03/03/2020,17:08,1.5075,1.5085,1.5045,1.5085, 70263
03/03/2020,17:11,1.5085,1.5115,1.5075,1.5115, 131510
03/03/2020,17:14,1.5115,1.5135,1.511,1.513, 63105
03/03/2020,17:16,1.513,1.5135,1.508,1.5098, 47883
03/03/2020,17:19,1.5095,1.5095,1.506,1.507, 25083
03/03/2020,17:22,1.507,1.5085,1.5065,1.5065, 45606
03/03/2020,17:24,1.5075,1.51,1.507,1.508, 46614
03/04/2020,09:01,1.494,1.494,1.494,1.494, 2361
03/04/2020,09:02,1.494,1.494,1.475,1.475, 7619
03/04/2020,09:03,1.4735,1.4835,1.473,1.4835, 17946
03/04/2020,09:04,1.483,1.4835,1.4705,1.4765, 12338
03/04/2020,09:05,1.4731,1.476,1.4731,1.476, 471
03/04/2020,09:06,1.476,1.48,1.476,1.48, 2173
03/04/2020,09:07,1.4845,1.4845,1.479,1.4815, 5767
03/04/2020,09:08,1.478,1.478,1.4735,1.474, 11178
03/04/2020,09:09,1.474,1.474,1.47,1.471, 19334
03/04/2020,09:10,1.469,1.469,1.4645,1.4645, 6958
03/04/2020,09:11,1.465,1.465,1.4605,1.4605, 3424
03/04/2020,09:11,1.4605,1.4605,1.4605,1.4605, 827
03/04/2020,09:13,1.465,1.465,1.465,1.465, 99
03/04/2020,09:13,1.4655,1.466,1.4655,1.466, 5696
03/04/2020,09:15,1.4665,1.471,1.4665,1.471, 14471
03/04/2020,09:16,1.471,1.471,1.4685,1.4685, 8912
03/04/2020,09:17,1.466,1.466,1.4655,1.4655, 1513
03/04/2020,09:18,1.4655,1.467,1.455,1.455, 48729
03/04/2020,09:19,1.4555,1.4655,1.4555,1.4655, 10097
03/04/2020,09:20,1.4655,1.4755,1.4655,1.466, 12800
03/04/2020,09:20,1.466,1.466,1.466,1.466, 40
03/04/2020,09:23,1.475,1.475,1.4705,1.4705, 6313
03/04/2020,09:23,1.475,1.475,1.474,1.475, 10490
03/04/2020,09:26,1.471,1.472,1.471,1.471, 8425
03/04/2020,09:27,1.474,1.4755,1.474,1.4755, 5166
03/04/2020,09:27,1.472,1.4744,1.472,1.4744, 2020
03/04/2020,09:28,1.4745,1.4765,1.473,1.4755, 9397
03/04/2020,09:31,1.476,1.476,1.476,1.476, 9127
03/04/2020,09:33,1.4745,1.4745,1.4725,1.4735, 4107
03/04/2020,09:35,1.4735,1.4735,1.4735,1.4735, 2000
03/04/2020,09:36,1.4735,1.474,1.4705,1.4705, 8189
03/04/2020,09:38,1.473,1.4735,1.4725,1.4735, 3598
03/04/2020,09:38,1.4745,1.4765,1.472,1.4725, 14722
03/04/2020,09:40,1.47,1.47,1.4665,1.4685, 21512
03/04/2020,09:40,1.4678,1.4678,1.4678,1.4678, 10000
03/04/2020,09:42,1.466,1.466,1.4655,1.4655, 1280
03/04/2020,09:44,1.4675,1.4675,1.464,1.464, 9688
03/04/2020,09:44,1.4665,1.467,1.4665,1.4665, 3813
03/04/2020,09:46,1.469,1.471,1.469,1.471, 12546
03/04/2020,09:46,1.4695,1.4695,1.4695,1.4695, 1161
03/04/2020,09:48,1.473,1.473,1.471,1.471, 6274
03/04/2020,09:48,1.4725,1.4755,1.4725,1.474, 75501
03/04/2020,09:49,1.4735,1.4735,1.4735,1.4735, 7864
03/04/2020,09:50,1.473,1.473,1.472,1.472, 4398
03/04/2020,09:51,1.473,1.475,1.473,1.475, 14446
03/04/2020,09:52,1.4755,1.4765,1.4755,1.476, 3304
03/04/2020,09:54,1.4775,1.4775,1.4765,1.4765, 2957
03/04/2020,09:56,1.4755,1.4755,1.4735,1.4735, 4868
03/04/2020,09:57,1.471,1.4715,1.469,1.469, 7053
03/04/2020,10:02,1.47,1.47,1.4685,1.4685, 35146
03/04/2020,10:02,1.468,1.471,1.468,1.4705, 21394
03/04/2020,10:03,1.472,1.473,1.472,1.473, 5058
03/04/2020,10:05,1.474,1.474,1.4705,1.472, 8913
03/04/2020,10:05,1.4722,1.4722,1.4722,1.4722, 32
03/04/2020,10:06,1.473,1.473,1.473,1.473, 928
03/04/2020,10:08,1.471,1.471,1.469,1.469, 6990
03/04/2020,10:09,1.468,1.469,1.468,1.469, 4282
03/04/2020,10:09,1.4705,1.4705,1.4705,1.4705, 2887
03/04/2020,10:11,1.4705,1.4719,1.4705,1.4719, 5414
03/04/2020,10:13,1.4705,1.4705,1.4705,1.4705, 4546
03/04/2020,10:15,1.469,1.4715,1.4685,1.4715, 6154
03/04/2020,10:17,1.4715,1.472,1.471,1.471, 6970
03/04/2020,10:18,1.4725,1.4725,1.4725,1.4725, 3647
03/04/2020,10:18,1.473,1.4731,1.473,1.4731, 8151
03/04/2020,10:20,1.4725,1.473,1.471,1.473, 12376
03/04/2020,10:21,1.4735,1.475,1.473,1.475, 15769
03/04/2020,10:26,1.4755,1.476,1.4755,1.476, 9260
03/04/2020,10:28,1.475,1.476,1.4745,1.476, 16434
03/04/2020,10:28,1.4765,1.4785,1.4765,1.4785, 12373
03/04/2020,10:31,1.4785,1.4785,1.4785,1.4785, 1260
03/04/2020,10:32,1.4785,1.4795,1.4785,1.4785, 3194
03/04/2020,10:33,1.4775,1.479,1.4775,1.479, 4392
03/04/2020,10:33,1.4775,1.4775,1.4775,1.4775, 1381
03/04/2020,10:34,1.477,1.4775,1.477,1.4775, 5080
03/04/2020,10:35,1.478,1.478,1.478,1.478, 2442
03/04/2020,10:38,1.4785,1.479,1.4785,1.479, 4995
03/04/2020,10:38,1.4794,1.482,1.4794,1.481, 7526
03/04/2020,10:39,1.4827,1.4827,1.4825,1.4825, 9140
03/04/2020,10:41,1.4825,1.4825,1.4815,1.4825, 5261
03/04/2020,10:41,1.483,1.483,1.483,1.483, 257
03/04/2020,10:42,1.484,1.484,1.484,1.484, 1436
03/04/2020,10:44,1.4825,1.483,1.4825,1.4825, 1867
03/04/2020,10:45,1.4795,1.4795,1.4795,1.4795, 1094
03/04/2020,10:46,1.479,1.479,1.4785,1.4785, 2020
03/04/2020,10:46,1.479,1.48,1.479,1.48, 4430
03/04/2020,10:48,1.4795,1.4805,1.4795,1.4805, 2109
03/04/2020,10:49,1.48,1.48,1.48,1.48, 1434
03/04/2020,10:51,1.4805,1.4805,1.4805,1.4805, 1263
03/04/2020,10:52,1.4795,1.4795,1.4795,1.4795, 1151
03/04/2020,10:54,1.48,1.48,1.48,1.48, 600
03/04/2020,10:54,1.479,1.479,1.479,1.479, 1376
03/04/2020,10:56,1.4805,1.481,1.4801,1.481, 11376
03/04/2020,10:56,1.481,1.481,1.481,1.481, 1000
03/04/2020,10:58,1.48,1.48,1.4785,1.479, 3205
03/04/2020,10:59,1.479,1.48,1.479,1.48, 15729
03/04/2020,11:01,1.481,1.481,1.48,1.48, 6158
03/04/2020,11:02,1.48,1.4805,1.479,1.479, 7534
03/04/2020,11:03,1.4785,1.4785,1.4785,1.4785, 830
03/04/2020,11:03,1.479,1.479,1.479,1.479, 270
03/04/2020,11:04,1.479,1.4805,1.479,1.4805, 4335
03/04/2020,11:05,1.481,1.481,1.481,1.481, 308
03/04/2020,11:06,1.482,1.482,1.482,1.482, 381
03/04/2020,11:08,1.4805,1.4805,1.4805,1.4805, 1875
03/04/2020,11:09,1.481,1.481,1.481,1.481, 947
03/04/2020,11:10,1.4815,1.4815,1.4815,1.4815, 11891
03/04/2020,11:11,1.4815,1.4815,1.4815,1.4815, 6551
03/04/2020,11:12,1.4815,1.4815,1.4815,1.4815, 11509
03/04/2020,11:13,1.481,1.481,1.481,1.481, 341
03/04/2020,11:13,1.4805,1.4805,1.4805,1.4805, 918
03/04/2020,11:15,1.4795,1.4795,1.479,1.479, 2725
03/04/2020,11:15,1.4795,1.4795,1.4795,1.4795, 1350
03/04/2020,11:17,1.4805,1.4805,1.48,1.48, 20784
03/04/2020,11:17,1.48,1.4805,1.479,1.479, 14634
03/04/2020,11:18,1.478,1.4785,1.477,1.4775, 11409
03/04/2020,11:21,1.478,1.478,1.4775,1.478, 4684
03/04/2020,11:23,1.478,1.478,1.478,1.478, 518
03/04/2020,11:23,1.478,1.478,1.478,1.478, 949
03/04/2020,11:24,1.4775,1.4775,1.4775,1.4775, 1017
03/04/2020,11:26,1.478,1.478,1.478,1.478, 1973
03/04/2020,11:27,1.4785,1.4795,1.4785,1.479, 10490
03/04/2020,11:29,1.4785,1.4785,1.4785,1.4785, 4496
03/04/2020,11:30,1.4785,1.479,1.4785,1.479, 8123
03/04/2020,11:31,1.4785,1.4785,1.4785,1.4785, 6096
03/04/2020,11:33,1.4785,1.4785,1.4775,1.4775, 10003
03/04/2020,11:33,1.477,1.477,1.477,1.477, 1598
03/04/2020,11:36,1.4767,1.4767,1.4745,1.4745, 6461
03/04/2020,11:39,1.474,1.474,1.474,1.474, 1323
03/04/2020,11:39,1.4745,1.477,1.4742,1.477, 17377
03/04/2020,11:43,1.4775,1.478,1.4755,1.478, 22037
03/04/2020,11:45,1.477,1.477,1.477,1.477, 4149
03/04/2020,11:48,1.476,1.476,1.476,1.476, 1246
03/04/2020,11:49,1.475,1.475,1.4745,1.475, 4906
03/04/2020,11:51,1.4749,1.4749,1.4749,1.4749, 66
03/04/2020,11:55,1.475,1.475,1.4745,1.4745, 2706
03/04/2020,11:56,1.474,1.474,1.4735,1.4735, 2324
03/04/2020,11:58,1.474,1.475,1.474,1.475, 6684
03/04/2020,11:58,1.4755,1.4755,1.4755,1.4755, 2812
03/04/2020,11:59,1.476,1.477,1.476,1.4765, 11147
03/04/2020,12:03,1.4765,1.4765,1.4765,1.4765, 5460
03/04/2020,12:05,1.4765,1.4765,1.4765,1.4765, 968
03/04/2020,12:07,1.4755,1.476,1.475,1.475, 14011
03/04/2020,12:08,1.4745,1.4745,1.4745,1.4745, 3543
03/04/2020,12:09,1.476,1.476,1.475,1.475, 6445
03/04/2020,12:11,1.476,1.476,1.475,1.475, 9159
03/04/2020,12:12,1.4745,1.4745,1.473,1.4735, 8092
03/04/2020,12:15,1.4735,1.4735,1.4735,1.4735, 391
03/04/2020,12:16,1.4735,1.4745,1.4735,1.4745, 9479
03/04/2020,12:16,1.4744,1.4744,1.474,1.474, 2087
03/04/2020,12:18,1.474,1.474,1.474,1.474, 2000
03/04/2020,12:19,1.474,1.474,1.474,1.474, 1059
03/04/2020,12:20,1.474,1.474,1.474,1.474, 1116
03/04/2020,12:22,1.4745,1.475,1.4745,1.475, 2082
03/04/2020,12:23,1.476,1.476,1.4755,1.476, 30686
03/04/2020,12:24,1.476,1.4765,1.476,1.4765, 6153
03/04/2020,12:24,1.4765,1.4765,1.4755,1.4755, 3552
03/04/2020,12:25,1.4765,1.4765,1.476,1.476, 6887
03/04/2020,12:28,1.4765,1.477,1.476,1.476, 18507
03/04/2020,12:29,1.476,1.476,1.476,1.476, 232
03/04/2020,12:29,1.476,1.4765,1.476,1.4765, 2569
03/04/2020,12:31,1.476,1.476,1.476,1.476, 217
03/04/2020,12:33,1.4765,1.4765,1.4765,1.4765, 3195
03/04/2020,12:34,1.477,1.4815,1.477,1.4815, 14155
03/04/2020,12:37,1.483,1.483,1.4825,1.4825, 6645
03/04/2020,12:38,1.482,1.482,1.481,1.481, 3647
03/04/2020,12:39,1.4825,1.4825,1.4825,1.4825, 2610
03/04/2020,12:40,1.483,1.483,1.483,1.483, 340
03/04/2020,12:40,1.4825,1.4825,1.481,1.482, 2692
03/04/2020,12:41,1.4815,1.4815,1.4815,1.4815, 1621
03/04/2020,12:42,1.482,1.482,1.482,1.482, 2984
03/04/2020,12:45,1.4815,1.4815,1.4815,1.4815, 4350
03/04/2020,12:46,1.481,1.482,1.481,1.482, 8350
03/04/2020,12:48,1.4825,1.4831,1.4825,1.4831, 9879
03/04/2020,12:49,1.483,1.485,1.483,1.485, 9811
03/04/2020,12:50,1.4845,1.4845,1.484,1.484, 4351
03/04/2020,12:50,1.485,1.485,1.485,1.485, 792
03/04/2020,12:53,1.485,1.486,1.485,1.4855, 3900
03/04/2020,12:55,1.484,1.485,1.484,1.484, 10246
03/04/2020,12:55,1.4825,1.483,1.4825,1.483, 4292
03/04/2020,12:59,1.4815,1.4815,1.481,1.481, 3557
03/04/2020,12:59,1.4815,1.4815,1.4815,1.4815, 632
03/04/2020,13:00,1.4815,1.4845,1.4815,1.4845, 10635
03/04/2020,13:03,1.4865,1.4865,1.4865,1.4865, 3944
03/04/2020,13:04,1.483,1.483,1.483,1.483, 1726
03/04/2020,13:04,1.4825,1.4825,1.4815,1.4815, 5397
03/04/2020,13:05,1.481,1.481,1.481,1.481, 3702
03/04/2020,13:07,1.481,1.4825,1.481,1.4825, 9797
03/04/2020,13:07,1.4835,1.486,1.4835,1.486, 501
03/04/2020,13:11,1.487,1.488,1.4865,1.4865, 9320
03/04/2020,13:12,1.488,1.488,1.488,1.488, 1586
03/04/2020,13:13,1.4885,1.489,1.488,1.4885, 6366
03/04/2020,13:15,1.4875,1.4875,1.487,1.4875, 5641
03/04/2020,13:16,1.4875,1.4875,1.4875,1.4875, 72
03/04/2020,13:17,1.4875,1.4875,1.4875,1.4875, 1074
03/04/2020,13:17,1.487,1.487,1.487,1.487, 1845
03/04/2020,13:22,1.488,1.489,1.488,1.489, 9448
03/04/2020,13:22,1.4893,1.4893,1.4893,1.4893, 2003
03/04/2020,13:24,1.4895,1.49,1.4895,1.49, 6008
03/04/2020,13:25,1.49,1.4905,1.49,1.49, 6469
03/04/2020,13:27,1.4895,1.4895,1.4895,1.4895, 2265
03/04/2020,13:28,1.4895,1.4895,1.4895,1.4895, 4
03/04/2020,13:29,1.489,1.491,1.489,1.491, 4397
03/04/2020,13:30,1.491,1.491,1.49,1.491, 21577
03/04/2020,13:32,1.491,1.491,1.4895,1.49, 5393
03/04/2020,13:33,1.49,1.49,1.4885,1.4885, 4817
03/04/2020,13:33,1.4895,1.4895,1.4895,1.4895, 1548
03/04/2020,13:35,1.49,1.4901,1.4895,1.49, 7102
03/04/2020,13:35,1.4895,1.4895,1.4885,1.4885, 3671
03/04/2020,13:37,1.489,1.489,1.489,1.489, 105
03/04/2020,13:38,1.4888,1.4895,1.4888,1.4895, 6625
03/04/2020,13:42,1.4885,1.4885,1.4865,1.4865, 19045
03/04/2020,13:43,1.4865,1.4865,1.485,1.486, 7466
03/04/2020,13:45,1.4865,1.4865,1.4865,1.4865, 3599
03/04/2020,13:45,1.488,1.4885,1.488,1.4885, 767
03/04/2020,13:50,1.4905,1.4905,1.49,1.49, 4273
03/04/2020,13:52,1.4895,1.4895,1.488,1.488, 4444
03/04/2020,13:53,1.488,1.488,1.487,1.487, 7413
03/04/2020,13:55,1.4875,1.489,1.4875,1.488, 14042
03/04/2020,13:55,1.4865,1.4865,1.4865,1.4865, 5296
03/04/2020,13:57,1.486,1.486,1.4845,1.4845, 12313
03/04/2020,13:59,1.4835,1.4835,1.4835,1.4835, 622
03/04/2020,14:00,1.4825,1.4825,1.4825,1.4825, 510
03/04/2020,14:02,1.483,1.483,1.482,1.4825, 5618
03/04/2020,14:03,1.483,1.483,1.482,1.482, 2243
03/04/2020,14:05,1.4805,1.4815,1.48,1.48, 11253
03/04/2020,14:06,1.48,1.48,1.4795,1.4795, 1954
03/04/2020,14:07,1.479,1.479,1.479,1.479, 1261
03/04/2020,14:09,1.4765,1.4765,1.4765,1.4765, 598
03/04/2020,14:13,1.4765,1.477,1.4755,1.4755, 14357
03/04/2020,14:13,1.4745,1.4745,1.4745,1.4745, 2263
03/04/2020,14:17,1.475,1.475,1.4735,1.474, 10761
03/04/2020,14:18,1.474,1.474,1.474,1.474, 2187
03/04/2020,14:18,1.4735,1.475,1.4735,1.475, 6540
03/04/2020,14:20,1.4755,1.476,1.4755,1.4755, 4166
03/04/2020,14:21,1.4765,1.4765,1.476,1.476, 5244
03/04/2020,14:21,1.4765,1.477,1.4765,1.477, 12662
03/04/2020,14:23,1.477,1.4795,1.4765,1.478, 17708
03/04/2020,14:23,1.478,1.4785,1.4775,1.4775, 13295
03/04/2020,14:25,1.477,1.477,1.4765,1.4765, 3668
03/04/2020,14:25,1.476,1.476,1.476,1.476, 2529
03/04/2020,14:27,1.4775,1.4775,1.4765,1.477, 4889
03/04/2020,14:27,1.477,1.477,1.477,1.477, 810
03/04/2020,14:29,1.4765,1.4765,1.4765,1.4765, 3944
03/04/2020,14:30,1.4765,1.4765,1.4755,1.476, 7751
03/04/2020,14:31,1.4755,1.4755,1.4735,1.474, 8965
03/04/2020,14:32,1.4745,1.475,1.474,1.474, 6775
03/04/2020,14:34,1.473,1.4735,1.473,1.4735, 3417
03/04/2020,14:34,1.474,1.474,1.474,1.474, 4461
03/04/2020,14:36,1.4735,1.4735,1.4735,1.4735, 739
03/04/2020,14:39,1.474,1.474,1.474,1.474, 2435
03/04/2020,14:40,1.473,1.473,1.473,1.473, 6564
03/04/2020,14:41,1.4735,1.475,1.4735,1.475, 9537
03/04/2020,14:42,1.4755,1.4755,1.4745,1.4745, 11222
03/04/2020,14:42,1.474,1.474,1.473,1.473, 4650
03/04/2020,14:43,1.473,1.473,1.473,1.473, 59
03/04/2020,14:44,1.474,1.474,1.474,1.474, 4865
03/04/2020,14:45,1.4735,1.4735,1.4735,1.4735, 1540
03/04/2020,14:46,1.474,1.474,1.474,1.474, 5004
03/04/2020,14:48,1.4735,1.4735,1.473,1.473, 1645
03/04/2020,14:49,1.4735,1.4735,1.471,1.471, 11575
03/04/2020,14:49,1.4705,1.4705,1.4705,1.4705, 1320
03/04/2020,14:51,1.4695,1.4695,1.4685,1.469, 8359
03/04/2020,14:52,1.469,1.469,1.469,1.469, 2000
03/04/2020,14:53,1.469,1.469,1.468,1.468, 6520
03/04/2020,14:53,1.468,1.468,1.468,1.468, 1167
03/04/2020,14:55,1.4675,1.4675,1.467,1.4675, 9551
03/04/2020,14:56,1.466,1.467,1.466,1.467, 15102
03/04/2020,14:56,1.4675,1.4675,1.4675,1.4675, 614
03/04/2020,14:57,1.467,1.467,1.467,1.467, 4989
03/04/2020,14:59,1.466,1.466,1.466,1.466, 645
03/04/2020,15:01,1.466,1.466,1.466,1.466, 255
03/04/2020,15:02,1.465,1.465,1.465,1.465, 34
03/04/2020,15:03,1.465,1.465,1.4635,1.4635, 10706
03/04/2020,15:04,1.463,1.463,1.462,1.4625, 23871
03/04/2020,15:05,1.4625,1.463,1.4625,1.463, 1559
03/04/2020,15:06,1.463,1.464,1.463,1.4635, 7377
03/04/2020,15:09,1.464,1.468,1.464,1.467, 41520
03/04/2020,15:10,1.4665,1.4665,1.4665,1.4665, 2382
03/04/2020,15:12,1.467,1.467,1.466,1.467, 4864
03/04/2020,15:13,1.4675,1.4675,1.4675,1.4675, 4686
03/04/2020,15:14,1.468,1.468,1.4655,1.4655, 9181
03/04/2020,15:15,1.466,1.466,1.4655,1.466, 3818
03/04/2020,15:16,1.465,1.465,1.465,1.465, 677
03/04/2020,15:17,1.464,1.4645,1.463,1.463, 6397
03/04/2020,15:18,1.465,1.465,1.465,1.465, 1085
03/04/2020,15:19,1.4655,1.4655,1.4655,1.4655, 258
03/04/2020,15:20,1.464,1.464,1.464,1.464, 1908
03/04/2020,15:23,1.466,1.466,1.466,1.466, 2278
03/04/2020,15:25,1.465,1.465,1.465,1.465, 3881
03/04/2020,15:26,1.4655,1.4655,1.4645,1.4645, 3974
03/04/2020,15:28,1.464,1.464,1.463,1.463, 2188
03/04/2020,15:30,1.463,1.4635,1.463,1.4635, 9887
03/04/2020,15:31,1.4625,1.4625,1.4625,1.4625, 3511
03/04/2020,15:31,1.464,1.464,1.464,1.464, 2002
03/04/2020,15:32,1.4645,1.4655,1.4645,1.4655, 8426
03/04/2020,15:32,1.466,1.466,1.465,1.465, 2265
03/04/2020,15:35,1.4645,1.465,1.463,1.463, 3470
03/04/2020,15:36,1.462,1.462,1.4595,1.4595, 3619
03/04/2020,15:37,1.458,1.458,1.454,1.454, 15663
03/04/2020,15:39,1.455,1.455,1.455,1.455, 1377
03/04/2020,15:39,1.454,1.454,1.4535,1.4535, 2058
03/04/2020,15:41,1.455,1.4555,1.454,1.455, 7504
03/04/2020,15:41,1.4551,1.4551,1.4551,1.4551, 623
03/04/2020,15:42,1.454,1.454,1.454,1.454, 1005
03/04/2020,15:43,1.453,1.454,1.453,1.454, 1251
03/04/2020,15:44,1.4529,1.4529,1.4525,1.4525, 22549
03/04/2020,15:44,1.4515,1.4515,1.45,1.45, 1016
03/04/2020,15:46,1.4515,1.4515,1.4495,1.4495, 8464
03/04/2020,15:48,1.4495,1.4505,1.449,1.449, 30922
03/04/2020,15:49,1.45,1.4515,1.45,1.4515, 7195
03/04/2020,15:50,1.451,1.4515,1.4494,1.4494, 16309
03/04/2020,15:51,1.4485,1.4485,1.4475,1.4475, 2981
03/04/2020,15:51,1.447,1.447,1.447,1.447, 1455
03/04/2020,15:52,1.4465,1.4475,1.4465,1.4475, 3335
03/04/2020,15:55,1.4465,1.447,1.446,1.4463, 13949
03/04/2020,15:57,1.4455,1.446,1.444,1.446, 16977
03/04/2020,15:59,1.445,1.445,1.4425,1.4428, 27958
03/04/2020,16:00,1.4432,1.447,1.4425,1.447, 17372
03/04/2020,16:01,1.4475,1.4495,1.4475,1.4495, 11746
03/04/2020,16:02,1.4485,1.4485,1.448,1.4483, 6618
03/04/2020,16:04,1.4495,1.4495,1.4465,1.4465, 7849
03/04/2020,16:07,1.4455,1.4455,1.443,1.444, 7794
03/04/2020,16:08,1.4445,1.447,1.4445,1.447, 15140
03/04/2020,16:11,1.449,1.449,1.4475,1.448, 11771
03/04/2020,16:12,1.447,1.449,1.447,1.448, 9350
03/04/2020,16:13,1.4495,1.4495,1.448,1.448, 5866
03/04/2020,16:16,1.4475,1.4475,1.445,1.445, 11595
03/04/2020,16:17,1.446,1.447,1.446,1.447, 5495
03/04/2020,16:19,1.447,1.449,1.447,1.4485, 10056
03/04/2020,16:19,1.4485,1.4485,1.4485,1.4485, 210
03/04/2020,16:21,1.4485,1.449,1.448,1.4485, 6481
03/04/2020,16:22,1.448,1.448,1.448,1.448, 391
03/04/2020,16:24,1.4475,1.4505,1.4465,1.45, 22914
03/04/2020,16:27,1.4495,1.45,1.449,1.449, 7526
03/04/2020,16:30,1.449,1.45,1.449,1.45, 9843
03/04/2020,16:31,1.45,1.45,1.4495,1.4495, 6584
03/04/2020,16:31,1.449,1.449,1.449,1.449, 911
03/04/2020,16:33,1.4485,1.449,1.4475,1.448, 9647
03/04/2020,16:35,1.448,1.448,1.447,1.447, 25182
03/04/2020,16:37,1.4475,1.448,1.4475,1.448, 4054
03/04/2020,16:38,1.448,1.448,1.4455,1.4455, 9278
03/04/2020,16:39,1.445,1.445,1.4435,1.4435, 3814
03/04/2020,16:39,1.4425,1.4425,1.4425,1.4425, 61
03/04/2020,16:42,1.4435,1.4485,1.4435,1.4485, 35417
03/04/2020,16:43,1.4475,1.4475,1.447,1.447, 1878
03/04/2020,16:44,1.447,1.447,1.447,1.447, 146
03/04/2020,16:45,1.448,1.4485,1.4479,1.4479, 8362
03/04/2020,16:46,1.4485,1.4485,1.4485,1.4485, 1079
03/04/2020,16:48,1.448,1.4485,1.4475,1.4475, 1334
03/04/2020,16:49,1.447,1.447,1.4465,1.4465, 2141
03/04/2020,16:51,1.446,1.4465,1.446,1.4465, 4636
03/04/2020,16:54,1.4465,1.447,1.446,1.446, 2683
03/04/2020,16:55,1.4465,1.4465,1.445,1.445, 4591
03/04/2020,16:56,1.4435,1.4435,1.4435,1.4435, 1176
03/04/2020,16:57,1.4431,1.4431,1.442,1.442, 3225
03/04/2020,16:58,1.443,1.4435,1.443,1.4435, 6557
03/04/2020,17:00,1.444,1.446,1.444,1.4455, 17208
03/04/2020,17:00,1.4445,1.4445,1.4445,1.4445, 834
03/04/2020,17:01,1.445,1.445,1.445,1.445, 683
03/04/2020,17:03,1.4445,1.4445,1.444,1.444, 1659
03/04/2020,17:03,1.444,1.444,1.444,1.444, 486
03/04/2020,17:06,1.443,1.443,1.4415,1.4425, 15859
03/04/2020,17:07,1.4425,1.4435,1.4425,1.4435, 8773
03/04/2020,17:09,1.4425,1.4435,1.4425,1.443, 18451
03/04/2020,17:10,1.4425,1.444,1.4425,1.444, 14369
03/04/2020,17:12,1.444,1.447,1.444,1.447, 13794
03/04/2020,17:14,1.4475,1.4476,1.447,1.4475, 7253
03/04/2020,17:16,1.447,1.4475,1.4465,1.4465, 6681
03/04/2020,17:17,1.446,1.446,1.446,1.446, 5522
03/04/2020,17:20,1.446,1.446,1.4455,1.4455, 2955
03/04/2020,17:22,1.446,1.4465,1.445,1.445, 12659
03/04/2020,17:23,1.4445,1.4445,1.4425,1.443, 16675
03/04/2020,17:25,1.4435,1.445,1.4435,1.4446, 11588
03/04/2020,17:26,1.4455,1.4465,1.445,1.4465, 3437
03/04/2020,17:26,1.447,1.447,1.4465,1.4465, 2763
03/04/2020,17:28,1.4467,1.4467,1.4465,1.4465, 2575
03/04/2020,17:29,1.447,1.4475,1.4455,1.4455, 9398
03/04/2020,17:30,1.446,1.448,1.4455,1.448, 4230
03/04/2020,17:36,1.4465,1.4465,1.4465,1.4465, 1081022
03/05/2020,09:01,1.4275,1.4294,1.4275,1.4294, 26602
03/05/2020,09:02,1.4401,1.4401,1.4401,1.4401, 3471
03/05/2020,09:04,1.431,1.4323,1.429,1.429, 9483
03/05/2020,09:04,1.4225,1.4225,1.422,1.422, 2000
03/05/2020,09:06,1.4175,1.4205,1.4175,1.42, 12337
03/05/2020,09:07,1.42,1.4205,1.4135,1.4135, 13356
03/05/2020,09:08,1.412,1.4135,1.408,1.408, 23032
03/05/2020,09:09,1.4075,1.4115,1.4065,1.4065, 14621
03/05/2020,09:10,1.406,1.409,1.4025,1.4025, 9643
03/05/2020,09:11,1.4025,1.4045,1.4005,1.4005, 10304
03/05/2020,09:12,1.4035,1.4035,1.397,1.397, 13594
03/05/2020,09:13,1.4,1.4,1.396,1.3961, 31960
03/05/2020,09:14,1.3975,1.4055,1.3963,1.4055, 20753
03/05/2020,09:16,1.4056,1.4056,1.3995,1.3995, 8965
03/05/2020,09:17,1.4,1.4,1.3985,1.3985, 2402
03/05/2020,09:18,1.399,1.399,1.399,1.399, 878
03/05/2020,09:19,1.3975,1.401,1.3955,1.3985, 55460
03/05/2020,09:19,1.396,1.396,1.3955,1.3955, 4103
03/05/2020,09:21,1.3955,1.3955,1.394,1.394, 3081
03/05/2020,09:22,1.3925,1.3925,1.389,1.3895, 2245
03/05/2020,09:22,1.389,1.3895,1.3885,1.3895, 16691
03/05/2020,09:24,1.386,1.386,1.383,1.385, 26312
03/05/2020,09:24,1.387,1.388,1.387,1.388, 19711
03/05/2020,09:27,1.3855,1.3867,1.3855,1.386, 4556
03/05/2020,09:28,1.384,1.384,1.3815,1.3815, 4054
03/05/2020,09:29,1.38,1.381,1.38,1.381, 4228
03/05/2020,09:29,1.3797,1.3797,1.3797,1.3797, 2503
03/05/2020,09:32,1.379,1.379,1.376,1.376, 6701
03/05/2020,09:34,1.376,1.376,1.376,1.376, 3062
03/05/2020,09:34,1.377,1.3785,1.377,1.3785, 9395
03/05/2020,09:36,1.3788,1.3795,1.3787,1.3788, 2580
03/05/2020,09:37,1.38,1.382,1.38,1.381, 8435
03/05/2020,09:38,1.3825,1.3825,1.3795,1.3795, 13580
03/05/2020,09:39,1.3785,1.38,1.3775,1.3775, 30435
03/05/2020,09:40,1.379,1.379,1.377,1.377, 38775
03/05/2020,09:41,1.378,1.378,1.3745,1.3745, 21681
03/05/2020,09:41,1.3745,1.3765,1.3745,1.3765, 6984
03/05/2020,09:43,1.3755,1.3755,1.3725,1.3725, 72241
03/05/2020,09:44,1.372,1.374,1.372,1.374, 8697
03/05/2020,09:45,1.373,1.373,1.372,1.3725, 1006
03/05/2020,09:46,1.3705,1.3705,1.369,1.369, 3771
03/05/2020,09:47,1.369,1.371,1.3685,1.371, 4968
03/05/2020,09:48,1.3675,1.3675,1.3675,1.3675, 4755
03/05/2020,09:48,1.371,1.371,1.371,1.371, 9015
03/05/2020,09:50,1.371,1.371,1.3685,1.3685, 3097
03/05/2020,09:51,1.3685,1.3715,1.3685,1.3715, 7002
03/05/2020,09:52,1.3716,1.3745,1.3716,1.3735, 13870
03/05/2020,09:52,1.3745,1.3765,1.3745,1.3765, 10546
03/05/2020,09:53,1.3745,1.3745,1.3745,1.3745, 669
03/05/2020,09:56,1.3763,1.3763,1.374,1.374, 3880
03/05/2020,09:56,1.372,1.372,1.372,1.372, 653
03/05/2020,09:58,1.372,1.372,1.372,1.372, 898
03/05/2020,09:58,1.374,1.374,1.374,1.374, 6039
03/05/2020,09:59,1.3732,1.3732,1.3721,1.3721, 2797
03/05/2020,10:01,1.3735,1.3735,1.37,1.373, 19727
03/05/2020,10:01,1.373,1.373,1.373,1.373, 2583
03/05/2020,10:04,1.3735,1.374,1.371,1.3735, 155560
03/05/2020,10:05,1.3745,1.3756,1.3731,1.3756, 5130
03/05/2020,10:06,1.3735,1.3735,1.3735,1.3735, 8013
03/05/2020,10:07,1.371,1.3725,1.371,1.3715, 6889
03/05/2020,10:09,1.368,1.368,1.365,1.3655, 18750
03/05/2020,10:09,1.366,1.3665,1.366,1.3665, 8791
03/05/2020,10:10,1.367,1.367,1.365,1.365, 9209
03/05/2020,10:11,1.3653,1.3665,1.3653,1.3665, 9750
03/05/2020,10:12,1.367,1.3695,1.367,1.369, 6312
03/05/2020,10:14,1.3715,1.373,1.3662,1.3715, 20219
03/05/2020,10:16,1.371,1.371,1.371,1.371, 1500
03/05/2020,10:18,1.371,1.3717,1.371,1.371, 28178
03/05/2020,10:19,1.3705,1.3712,1.37,1.3712, 2325
03/05/2020,10:19,1.3708,1.373,1.3708,1.372, 15537
03/05/2020,10:20,1.3735,1.375,1.3735,1.374, 10046
03/05/2020,10:22,1.374,1.3744,1.374,1.3744, 2363
03/05/2020,10:22,1.3755,1.3755,1.3755,1.3755, 2525
03/05/2020,10:24,1.3755,1.3755,1.3745,1.3745, 3883
03/05/2020,10:25,1.374,1.374,1.373,1.373, 9062
03/05/2020,10:25,1.3735,1.3735,1.3706,1.3706, 13504
03/05/2020,10:28,1.3735,1.3735,1.3735,1.3735, 994
03/05/2020,10:28,1.373,1.373,1.3725,1.3725, 1354
03/05/2020,10:30,1.3729,1.3729,1.3725,1.3725, 5807
03/05/2020,10:31,1.3715,1.3715,1.3705,1.3705, 5918
03/05/2020,10:33,1.372,1.372,1.37,1.3715, 7928
03/05/2020,10:33,1.3715,1.3715,1.3715,1.3715, 109
03/05/2020,10:34,1.3715,1.3715,1.3715,1.3715, 4
03/05/2020,10:36,1.372,1.372,1.372,1.372, 40000
03/05/2020,10:37,1.373,1.373,1.373,1.373, 10000
03/05/2020,10:38,1.3711,1.3711,1.3711,1.3711, 1000
03/05/2020,10:40,1.3711,1.3711,1.3711,1.3711, 800
03/05/2020,10:43,1.37,1.37,1.37,1.37, 2940
03/05/2020,10:45,1.3705,1.371,1.3695,1.371, 8049
03/05/2020,10:45,1.372,1.373,1.372,1.373, 3340
03/05/2020,10:48,1.374,1.376,1.373,1.374, 28209
03/05/2020,10:49,1.3735,1.3739,1.3735,1.3739, 6785
03/05/2020,10:51,1.373,1.374,1.372,1.3725, 87332
03/05/2020,10:52,1.373,1.3745,1.3715,1.3745, 17197
03/05/2020,10:53,1.3765,1.3765,1.3765,1.3765, 950
03/05/2020,10:54,1.378,1.378,1.378,1.378, 2569
03/05/2020,10:56,1.378,1.378,1.378,1.378, 777
03/05/2020,10:57,1.3775,1.3775,1.377,1.377, 3506
03/05/2020,10:58,1.376,1.376,1.3755,1.3755, 13037
03/05/2020,11:00,1.3745,1.375,1.3745,1.375, 7190
03/05/2020,11:01,1.3755,1.3755,1.3725,1.3725, 25854
03/05/2020,11:02,1.372,1.3725,1.3695,1.3695, 40627
03/05/2020,11:02,1.3723,1.3723,1.3723,1.3723, 15000
03/05/2020,11:03,1.368,1.368,1.365,1.365, 7880
03/05/2020,11:05,1.3675,1.368,1.3675,1.3675, 4513
03/05/2020,11:07,1.365,1.3655,1.365,1.3655, 2730
03/05/2020,11:07,1.3645,1.3645,1.3645,1.3645, 3488
03/05/2020,11:08,1.3645,1.3645,1.3645,1.3645, 32
03/05/2020,11:09,1.363,1.363,1.362,1.362, 896
03/05/2020,11:10,1.362,1.362,1.362,1.362, 500
03/05/2020,11:11,1.362,1.3645,1.362,1.3645, 1864
03/05/2020,11:13,1.3645,1.3645,1.3605,1.3605, 11785
03/05/2020,11:13,1.3618,1.3618,1.3618,1.3618, 10
03/05/2020,11:15,1.363,1.363,1.363,1.363, 132
03/05/2020,11:16,1.361,1.361,1.361,1.361, 2351
03/05/2020,11:16,1.3615,1.3615,1.3615,1.3615, 5000
03/05/2020,11:17,1.359,1.3595,1.357,1.3595, 6099
03/05/2020,11:19,1.359,1.36,1.359,1.36, 6817
03/05/2020,11:19,1.3605,1.361,1.3605,1.3605, 2587
03/05/2020,11:21,1.3595,1.3595,1.358,1.358, 3884
03/05/2020,11:23,1.358,1.358,1.3565,1.358, 7917
03/05/2020,11:23,1.3575,1.3575,1.3575,1.3575, 1181
03/05/2020,11:24,1.357,1.357,1.3565,1.357, 2425
03/05/2020,11:25,1.3585,1.3585,1.3575,1.3575, 20510
03/05/2020,11:28,1.3575,1.359,1.3575,1.359, 5091
03/05/2020,11:28,1.3585,1.3585,1.357,1.357, 7327
03/05/2020,11:29,1.356,1.356,1.356,1.356, 12
03/05/2020,11:32,1.357,1.357,1.357,1.357, 3898
03/05/2020,11:34,1.356,1.356,1.356,1.356, 1808
03/05/2020,11:34,1.3555,1.356,1.3555,1.356, 6670
03/05/2020,11:36,1.356,1.357,1.356,1.3565, 8146
03/05/2020,11:36,1.3563,1.3563,1.3563,1.3563, 1270
03/05/2020,11:38,1.3575,1.3585,1.357,1.357, 8238
03/05/2020,11:41,1.356,1.356,1.356,1.356, 902
03/05/2020,11:42,1.3565,1.3565,1.3565,1.3565, 539
03/05/2020,11:43,1.3555,1.3555,1.3555,1.3555, 1837
03/05/2020,11:44,1.3545,1.3545,1.3535,1.3535, 767
03/05/2020,11:46,1.354,1.354,1.3535,1.3535, 972
03/05/2020,11:48,1.3545,1.3545,1.3535,1.354, 6910
03/05/2020,11:48,1.3545,1.3555,1.3545,1.3555, 2102
03/05/2020,11:50,1.356,1.356,1.355,1.355, 5176
03/05/2020,11:51,1.3554,1.3554,1.3554,1.3554, 1000
03/05/2020,11:53,1.356,1.3585,1.3555,1.357, 15336
03/05/2020,11:53,1.3565,1.3565,1.3565,1.3565, 958
03/05/2020,11:55,1.3555,1.3555,1.3545,1.3545, 1827
03/05/2020,11:57,1.354,1.3545,1.354,1.354, 25265
03/05/2020,11:58,1.354,1.354,1.354,1.354, 1523
03/05/2020,12:00,1.354,1.354,1.353,1.353, 5038
03/05/2020,12:01,1.3535,1.3545,1.3531,1.354, 17409
03/05/2020,12:01,1.3535,1.3535,1.353,1.353, 1504
03/05/2020,12:02,1.3532,1.3532,1.353,1.353, 5297
03/05/2020,12:03,1.353,1.353,1.353,1.353, 7790
03/05/2020,12:04,1.3525,1.3525,1.3525,1.3525, 333
03/05/2020,12:06,1.3525,1.353,1.3495,1.35, 7542
03/05/2020,12:06,1.3494,1.3494,1.3475,1.3475, 1320
03/05/2020,12:08,1.3485,1.3515,1.3485,1.3515, 6165
03/05/2020,12:09,1.353,1.353,1.352,1.352, 7107
03/05/2020,12:10,1.3505,1.353,1.3505,1.353, 2337
03/05/2020,12:10,1.3535,1.355,1.3535,1.355, 5991
03/05/2020,12:12,1.3545,1.355,1.3545,1.355, 5583
03/05/2020,12:13,1.3555,1.3565,1.3555,1.3565, 9445
03/05/2020,12:14,1.3565,1.357,1.3565,1.357, 557
03/05/2020,12:14,1.3565,1.3565,1.3565,1.3565, 3404
03/05/2020,12:15,1.355,1.355,1.355,1.355, 840
03/05/2020,12:17,1.356,1.356,1.355,1.355, 3534
03/05/2020,12:18,1.355,1.355,1.355,1.355, 782
03/05/2020,12:19,1.353,1.353,1.353,1.353, 587
03/05/2020,12:19,1.3525,1.3525,1.3525,1.3525, 677
03/05/2020,12:21,1.3515,1.3515,1.3505,1.3505, 4063
03/05/2020,12:22,1.3505,1.3505,1.35,1.35, 4038
03/05/2020,12:23,1.35,1.35,1.3495,1.3495, 3678
03/05/2020,12:23,1.3505,1.354,1.3505,1.3535, 12745
03/05/2020,12:25,1.3535,1.3535,1.351,1.351, 6092
03/05/2020,12:26,1.35,1.352,1.35,1.3515, 15023
03/05/2020,12:27,1.3525,1.3555,1.3525,1.354, 34957
03/05/2020,12:28,1.354,1.354,1.354,1.354, 1515
03/05/2020,12:28,1.354,1.354,1.354,1.354, 2640
03/05/2020,12:30,1.3535,1.3555,1.3535,1.3555, 7154
03/05/2020,12:30,1.3554,1.356,1.3554,1.356, 4197
03/05/2020,12:32,1.3555,1.3555,1.3555,1.3555, 5599
03/05/2020,12:33,1.355,1.3579,1.3545,1.3579, 14321
03/05/2020,12:34,1.3563,1.3574,1.3555,1.3574, 15976
03/05/2020,12:36,1.355,1.3558,1.3535,1.3535, 13059
03/05/2020,12:37,1.3539,1.3539,1.3539,1.3539, 2000
03/05/2020,12:39,1.3539,1.3539,1.353,1.353, 14849
03/05/2020,12:40,1.353,1.3545,1.353,1.354, 2316
03/05/2020,12:41,1.3535,1.3535,1.3535,1.3535, 221
03/05/2020,12:42,1.355,1.355,1.354,1.354, 1366
03/05/2020,12:42,1.3545,1.355,1.3545,1.355, 844
03/05/2020,12:43,1.354,1.354,1.353,1.353, 383
03/05/2020,12:45,1.3535,1.3535,1.3535,1.3535, 2901
03/05/2020,12:46,1.3525,1.3525,1.3515,1.352, 16283
03/05/2020,12:47,1.3519,1.3525,1.3519,1.3525, 2817
03/05/2020,12:47,1.3515,1.352,1.351,1.351, 8340
03/05/2020,12:49,1.351,1.3515,1.351,1.3515, 467
03/05/2020,12:50,1.3505,1.352,1.3505,1.352, 4246
03/05/2020,12:50,1.352,1.352,1.351,1.3515, 4131
03/05/2020,12:52,1.3525,1.356,1.352,1.356, 13552
03/05/2020,12:53,1.356,1.356,1.356,1.356, 2314
03/05/2020,12:54,1.356,1.356,1.3545,1.3545, 2854
03/05/2020,12:55,1.3533,1.3533,1.3515,1.3515, 7288
03/05/2020,12:55,1.353,1.353,1.353,1.353, 1672
03/05/2020,12:57,1.353,1.3535,1.3525,1.353, 3954
03/05/2020,12:58,1.354,1.3545,1.354,1.3545, 1971
03/05/2020,12:59,1.355,1.355,1.3545,1.3545, 1590
03/05/2020,13:00,1.3545,1.3545,1.353,1.353, 2326
03/05/2020,13:03,1.3565,1.3565,1.3565,1.3565, 3367
03/05/2020,13:05,1.3515,1.353,1.3515,1.353, 14742
03/05/2020,13:06,1.354,1.354,1.354,1.354, 1646
03/05/2020,13:07,1.3539,1.355,1.3535,1.355, 4988
03/05/2020,13:09,1.355,1.355,1.355,1.355, 7641
03/05/2020,13:09,1.355,1.355,1.355,1.355, 495
03/05/2020,13:11,1.3535,1.3535,1.3535,1.3535, 616
03/05/2020,13:12,1.3535,1.3541,1.3535,1.3535, 5149
03/05/2020,13:13,1.353,1.3533,1.3515,1.3515, 8845
03/05/2020,13:14,1.35,1.3515,1.3495,1.3515, 28241
03/05/2020,13:14,1.3525,1.354,1.3515,1.354, 9632
03/05/2020,13:16,1.354,1.3545,1.353,1.353, 6983
03/05/2020,13:16,1.353,1.354,1.353,1.354, 1165
03/05/2020,13:18,1.3535,1.3535,1.3535,1.3535, 5221
03/05/2020,13:20,1.3525,1.3525,1.3525,1.3525, 205
03/05/2020,13:22,1.3525,1.353,1.3525,1.353, 3918
03/05/2020,13:23,1.353,1.353,1.353,1.353, 27976
03/05/2020,13:23,1.3535,1.354,1.3535,1.3535, 4610
03/05/2020,13:26,1.3545,1.355,1.3545,1.355, 9096
03/05/2020,13:26,1.3555,1.3556,1.3555,1.3556, 1854
03/05/2020,13:28,1.356,1.358,1.355,1.355, 16180
03/05/2020,13:31,1.3545,1.3545,1.3537,1.3537, 5497
03/05/2020,13:31,1.3545,1.3565,1.354,1.3555, 14381
03/05/2020,13:33,1.355,1.355,1.355,1.355, 2637
03/05/2020,13:34,1.3555,1.3555,1.3555,1.3555, 2612
03/05/2020,13:35,1.3545,1.3545,1.3545,1.3545, 1252
03/05/2020,13:37,1.3535,1.3535,1.3525,1.3525, 2225
03/05/2020,13:38,1.352,1.3535,1.352,1.3535, 11940
03/05/2020,13:39,1.3545,1.355,1.353,1.353, 11953
03/05/2020,13:40,1.3525,1.353,1.352,1.353, 12572
03/05/2020,13:41,1.3535,1.354,1.3535,1.354, 1652
03/05/2020,13:45,1.357,1.357,1.3565,1.3565, 4612
03/05/2020,13:47,1.3565,1.3565,1.3565,1.3565, 5223
03/05/2020,13:48,1.3565,1.3565,1.3565,1.3565, 333
03/05/2020,13:48,1.3555,1.3555,1.3555,1.3555, 2276
03/05/2020,13:49,1.3545,1.3545,1.3545,1.3545, 554
03/05/2020,13:51,1.3535,1.3535,1.353,1.353, 2572
03/05/2020,13:51,1.352,1.3525,1.352,1.3525, 7566
03/05/2020,13:52,1.353,1.353,1.353,1.353, 1858
03/05/2020,13:54,1.354,1.359,1.354,1.359, 17195
03/05/2020,13:54,1.3575,1.3575,1.357,1.357, 2175
03/05/2020,13:57,1.3555,1.3555,1.3555,1.3555, 1169
03/05/2020,13:59,1.355,1.355,1.355,1.355, 169
03/05/2020,14:01,1.3545,1.3545,1.353,1.353, 3585
03/05/2020,14:01,1.352,1.353,1.352,1.353, 4543
03/05/2020,14:03,1.3535,1.3536,1.3535,1.3535, 8931
03/05/2020,14:04,1.3535,1.3535,1.3535,1.3535, 482
03/05/2020,14:05,1.354,1.354,1.353,1.3535, 7295
03/05/2020,14:06,1.354,1.3545,1.354,1.3545, 3594
03/05/2020,14:06,1.3544,1.355,1.3544,1.3544, 2134
03/05/2020,14:08,1.355,1.355,1.355,1.355, 1190
03/05/2020,14:12,1.354,1.356,1.354,1.356, 9820
03/05/2020,14:12,1.356,1.356,1.356,1.356, 293
03/05/2020,14:13,1.3567,1.3567,1.356,1.356, 2956
03/05/2020,14:14,1.3555,1.3555,1.3555,1.3555, 860
03/05/2020,14:16,1.355,1.3565,1.355,1.355, 6836
03/05/2020,14:17,1.3545,1.356,1.3545,1.356, 3142
03/05/2020,14:19,1.3545,1.355,1.3545,1.355, 3824
03/05/2020,14:19,1.355,1.355,1.355,1.355, 756
03/05/2020,14:21,1.3545,1.3545,1.3545,1.3545, 96
03/05/2020,14:22,1.3535,1.3535,1.3535,1.3535, 15675
03/05/2020,14:23,1.354,1.354,1.352,1.352, 8630
03/05/2020,14:23,1.352,1.353,1.352,1.353, 8144
03/05/2020,14:25,1.352,1.353,1.3515,1.353, 7532
03/05/2020,14:26,1.3535,1.354,1.3535,1.354, 2972
03/05/2020,14:28,1.3535,1.354,1.3535,1.354, 4256
03/05/2020,14:28,1.3545,1.3545,1.3545,1.3545, 3056
03/05/2020,14:29,1.355,1.3554,1.355,1.3554, 4890
03/05/2020,14:31,1.354,1.3555,1.354,1.3555, 15378
03/05/2020,14:32,1.355,1.355,1.3545,1.3545, 8825
03/05/2020,14:35,1.3545,1.3545,1.3535,1.3535, 6043
03/05/2020,14:36,1.3535,1.3535,1.352,1.352, 10225
03/05/2020,14:36,1.3521,1.3525,1.351,1.3525, 18031
03/05/2020,14:37,1.3525,1.353,1.3525,1.353, 1502
03/05/2020,14:38,1.3545,1.3545,1.354,1.354, 3116
03/05/2020,14:39,1.354,1.354,1.354,1.354, 4166
03/05/2020,14:41,1.353,1.353,1.3515,1.3515, 10314
03/05/2020,14:42,1.352,1.352,1.351,1.351, 9654
03/05/2020,14:43,1.3515,1.3515,1.3515,1.3515, 1966
03/05/2020,14:46,1.3515,1.3515,1.3513,1.3513, 3894
03/05/2020,14:46,1.352,1.352,1.352,1.352, 1439
03/05/2020,14:47,1.352,1.352,1.3515,1.3515, 4399
03/05/2020,14:48,1.3515,1.3515,1.351,1.351, 5256
03/05/2020,14:49,1.3505,1.3505,1.349,1.35, 7249
03/05/2020,14:51,1.3505,1.3505,1.35,1.35, 7946
03/05/2020,14:51,1.35,1.35,1.35,1.35, 78
03/05/2020,14:53,1.3505,1.351,1.3505,1.3505, 10502
03/05/2020,14:54,1.3505,1.3505,1.35,1.3505, 8341
03/05/2020,14:56,1.3505,1.3505,1.3505,1.3505, 427
03/05/2020,14:56,1.35,1.3505,1.35,1.3505, 8096
03/05/2020,14:58,1.349,1.349,1.349,1.349, 1761
03/05/2020,14:58,1.348,1.348,1.348,1.348, 759
03/05/2020,14:59,1.3485,1.35,1.348,1.35, 10171
03/05/2020,15:02,1.35,1.35,1.35,1.35, 6649
03/05/2020,15:02,1.35,1.351,1.35,1.3505, 4172
03/05/2020,15:04,1.35,1.35,1.3495,1.3495, 3764
03/05/2020,15:04,1.3485,1.3495,1.3485,1.3495, 2863
03/05/2020,15:06,1.3485,1.3485,1.3485,1.3485, 3916
03/05/2020,15:07,1.3485,1.3485,1.347,1.347, 1670
03/05/2020,15:07,1.3465,1.347,1.3465,1.3465, 5597
03/05/2020,15:08,1.345,1.345,1.345,1.345, 1771
03/05/2020,15:09,1.3435,1.3435,1.3435,1.3435, 382
03/05/2020,15:11,1.3445,1.3445,1.343,1.343, 5003
03/05/2020,15:12,1.344,1.345,1.344,1.345, 11539
03/05/2020,15:13,1.3465,1.347,1.3465,1.347, 3898
03/05/2020,15:13,1.348,1.348,1.348,1.348, 1154
03/05/2020,15:15,1.348,1.348,1.345,1.345, 16508
03/05/2020,15:16,1.3445,1.3445,1.344,1.344, 767
03/05/2020,15:17,1.3425,1.3435,1.3425,1.3435, 2976
03/05/2020,15:18,1.342,1.342,1.342,1.342, 3608
03/05/2020,15:19,1.342,1.342,1.342,1.342, 148
03/05/2020,15:21,1.341,1.341,1.3405,1.3405, 2068
03/05/2020,15:22,1.341,1.3445,1.3405,1.3445, 26748
03/05/2020,15:23,1.3445,1.3445,1.3435,1.3435, 4181
03/05/2020,15:24,1.3435,1.3435,1.3435,1.3435, 1914
03/05/2020,15:24,1.3435,1.3435,1.3435,1.3435, 391
03/05/2020,15:26,1.343,1.343,1.343,1.343, 1611
03/05/2020,15:26,1.344,1.3445,1.3435,1.344, 15975
03/05/2020,15:27,1.343,1.343,1.3425,1.3425, 9299
03/05/2020,15:29,1.3415,1.3415,1.341,1.341, 6519
03/05/2020,15:29,1.341,1.3414,1.341,1.341, 1825
03/05/2020,15:31,1.3415,1.3435,1.3415,1.342, 31194
03/05/2020,15:31,1.342,1.343,1.342,1.3425, 22264
03/05/2020,15:32,1.342,1.342,1.3415,1.3415, 29509
03/05/2020,15:33,1.342,1.342,1.3395,1.3395, 10598
03/05/2020,15:34,1.3375,1.3375,1.3375,1.3375, 2601
03/05/2020,15:35,1.337,1.3415,1.337,1.3415, 16204
03/05/2020,15:36,1.3425,1.344,1.3425,1.344, 14099
03/05/2020,15:37,1.343,1.343,1.3425,1.3425, 4895
03/05/2020,15:38,1.342,1.3455,1.342,1.3455, 22578
03/05/2020,15:39,1.346,1.346,1.345,1.3455, 11567
03/05/2020,15:39,1.345,1.345,1.345,1.345, 903
03/05/2020,15:40,1.3435,1.3455,1.3435,1.3455, 10016
03/05/2020,15:41,1.344,1.344,1.3415,1.3415, 2737
03/05/2020,15:43,1.3395,1.3395,1.3395,1.3395, 6306
03/05/2020,15:43,1.3385,1.3395,1.3385,1.3395, 2015
03/05/2020,15:44,1.3375,1.3375,1.3375,1.3375, 61
03/05/2020,15:45,1.3385,1.3385,1.3385,1.3385, 5277
03/05/2020,15:46,1.338,1.3435,1.3375,1.3435, 14107
03/05/2020,15:46,1.3365,1.337,1.3365,1.337, 2468
03/05/2020,15:47,1.3365,1.337,1.3365,1.337, 2808
03/05/2020,15:47,1.336,1.336,1.336,1.336, 1600
03/05/2020,15:49,1.3355,1.3355,1.333,1.333, 13415
03/05/2020,15:50,1.3325,1.3335,1.332,1.3325, 15673
03/05/2020,15:51,1.3335,1.3345,1.3325,1.3345, 15386
03/05/2020,15:52,1.3335,1.3349,1.3335,1.3349, 7215
03/05/2020,15:53,1.334,1.335,1.332,1.333, 22448
03/05/2020,15:54,1.333,1.333,1.333,1.333, 1658
03/05/2020,15:55,1.3315,1.3315,1.331,1.331, 6112
03/05/2020,15:57,1.329,1.329,1.3289,1.329, 3538
03/05/2020,15:57,1.329,1.329,1.3285,1.3285, 2246
03/05/2020,15:59,1.3285,1.3285,1.3245,1.3245, 20560
03/05/2020,15:59,1.324,1.325,1.3235,1.325, 9485
03/05/2020,16:01,1.3245,1.3245,1.3245,1.3245, 5414
03/05/2020,16:02,1.3245,1.326,1.3245,1.326, 13767
03/05/2020,16:03,1.3265,1.327,1.3265,1.327, 14713
03/05/2020,16:04,1.3275,1.328,1.3275,1.3275, 10847
03/05/2020,16:05,1.3275,1.3275,1.327,1.327, 4990
03/05/2020,16:07,1.326,1.328,1.326,1.3275, 16439
03/05/2020,16:07,1.327,1.3275,1.327,1.3275, 4404
03/05/2020,16:09,1.327,1.329,1.327,1.329, 13483
03/05/2020,16:10,1.3295,1.3295,1.326,1.326, 10507
03/05/2020,16:11,1.3255,1.326,1.325,1.325, 8954
03/05/2020,16:13,1.325,1.326,1.325,1.325, 7182
03/05/2020,16:14,1.3256,1.3256,1.3245,1.325, 10454
03/05/2020,16:15,1.326,1.326,1.325,1.325, 4749
03/05/2020,16:17,1.324,1.324,1.324,1.324, 3629
03/05/2020,16:17,1.3245,1.3255,1.3245,1.3255, 5349
03/05/2020,16:18,1.3265,1.3265,1.3265,1.3265, 10000
03/05/2020,16:20,1.327,1.33,1.327,1.33, 18862
03/05/2020,16:20,1.331,1.331,1.3305,1.3305, 6594
03/05/2020,16:22,1.3315,1.332,1.3305,1.3305, 27289
03/05/2020,16:22,1.3305,1.3312,1.3305,1.3312, 2000
03/05/2020,16:23,1.3305,1.3315,1.3305,1.3315, 5765
03/05/2020,16:24,1.3325,1.3325,1.3325,1.3325, 1749
03/05/2020,16:25,1.3335,1.3345,1.333,1.333, 29906
03/05/2020,16:26,1.333,1.333,1.3315,1.3315, 7825
03/05/2020,16:27,1.331,1.3325,1.331,1.3325, 8880
03/05/2020,16:28,1.331,1.3315,1.331,1.3315, 3318
03/05/2020,16:30,1.3315,1.3315,1.33,1.33, 12802
03/05/2020,16:30,1.3305,1.3305,1.3305,1.3305, 2354
03/05/2020,16:31,1.3295,1.33,1.3295,1.33, 8815
03/05/2020,16:31,1.3305,1.3305,1.33,1.33, 18953
03/05/2020,16:33,1.329,1.331,1.329,1.3305, 9304
03/05/2020,16:34,1.331,1.331,1.33,1.33, 3072
03/05/2020,16:35,1.329,1.329,1.328,1.328, 6068
03/05/2020,16:36,1.327,1.327,1.326,1.3265, 5533
03/05/2020,16:37,1.3265,1.3265,1.3265,1.3265, 4199
03/05/2020,16:38,1.3255,1.3265,1.3245,1.326, 11833
03/05/2020,16:39,1.3265,1.3275,1.3265,1.3275, 12192
03/05/2020,16:40,1.3275,1.3275,1.3273,1.3273, 1633
03/05/2020,16:41,1.327,1.327,1.327,1.327, 4562
03/05/2020,16:43,1.3275,1.329,1.3275,1.329, 12580
03/05/2020,16:44,1.329,1.329,1.329,1.329, 1224
03/05/2020,16:45,1.328,1.3285,1.328,1.328, 31817
03/05/2020,16:46,1.327,1.327,1.326,1.326, 6060
03/05/2020,16:47,1.3255,1.3255,1.3255,1.3255, 673
03/05/2020,16:48,1.325,1.3265,1.325,1.3265, 11169
03/05/2020,16:48,1.327,1.3275,1.327,1.3275, 8838
03/05/2020,16:49,1.328,1.329,1.328,1.329, 11790
03/05/2020,16:50,1.329,1.3295,1.3285,1.3295, 32426
03/05/2020,16:52,1.3285,1.3285,1.327,1.3275, 3439
03/05/2020,16:53,1.3275,1.3275,1.3275,1.3275, 1642
03/05/2020,16:54,1.328,1.328,1.328,1.328, 13270
03/05/2020,16:57,1.328,1.328,1.328,1.328, 2058
03/05/2020,16:57,1.3275,1.3278,1.3265,1.3265, 7318
03/05/2020,16:59,1.326,1.3265,1.326,1.3265, 8543
03/05/2020,16:59,1.327,1.327,1.3265,1.3265, 5410
03/05/2020,17:00,1.3265,1.3265,1.3265,1.3265, 998
03/05/2020,17:01,1.3265,1.329,1.3265,1.329, 31270
03/05/2020,17:03,1.3294,1.332,1.3294,1.3305, 38922
03/05/2020,17:04,1.3305,1.3305,1.3285,1.3285, 14200
03/05/2020,17:04,1.328,1.328,1.3275,1.3275, 4273
03/05/2020,17:05,1.3275,1.3275,1.3275,1.3275, 2393
03/05/2020,17:07,1.3274,1.328,1.3274,1.3275, 9337
03/05/2020,17:08,1.3285,1.33,1.3285,1.3296, 29540
03/05/2020,17:09,1.3295,1.3305,1.329,1.33, 17888
03/05/2020,17:10,1.33,1.33,1.33,1.33, 2838
03/05/2020,17:11,1.3305,1.3305,1.3295,1.3295, 7759
03/05/2020,17:12,1.3295,1.3295,1.328,1.328, 21908
03/05/2020,17:12,1.329,1.329,1.329,1.329, 6030
03/05/2020,17:14,1.329,1.3295,1.329,1.329, 15103
03/05/2020,17:15,1.3285,1.329,1.3285,1.329, 2647
03/05/2020,17:16,1.329,1.3295,1.328,1.328, 12775
03/05/2020,17:17,1.3275,1.3275,1.327,1.327, 22628
03/05/2020,17:18,1.3265,1.3265,1.3255,1.3265, 10715
03/05/2020,17:18,1.326,1.3275,1.326,1.327, 12892
03/05/2020,17:19,1.3265,1.327,1.3265,1.327, 2083
03/05/2020,17:21,1.327,1.327,1.3255,1.3255, 21705
03/05/2020,17:21,1.3255,1.326,1.3255,1.3256, 19240
03/05/2020,17:23,1.326,1.326,1.325,1.3255, 10164
03/05/2020,17:23,1.3255,1.3255,1.3255,1.3255, 4385
03/05/2020,17:25,1.325,1.3255,1.325,1.325, 36599
03/05/2020,17:26,1.3255,1.3265,1.3253,1.3265, 10291
03/05/2020,17:27,1.326,1.3265,1.3255,1.3255, 12568
03/05/2020,17:28,1.3255,1.326,1.3255,1.326, 10725
03/05/2020,17:29,1.3265,1.327,1.3265,1.327, 3894
03/05/2020,17:30,1.327,1.3275,1.327,1.327, 6414
03/05/2020,17:30,1.3273,1.329,1.3273,1.329, 1012
03/05/2020,17:36,1.3315,1.3315,1.3315,1.3315, 1076532
03/06/2020,09:01,1.3155,1.3155,1.3155,1.3155, 3056
03/06/2020,09:01,1.3076,1.3076,1.3076,1.3076, 1209
03/06/2020,09:02,1.3073,1.3073,1.3073,1.3073, 380
03/06/2020,09:04,1.3045,1.3045,1.2965,1.299, 19619
03/06/2020,09:04,1.298,1.3065,1.298,1.304, 20954
03/06/2020,09:05,1.303,1.3056,1.303,1.3056, 1826
03/06/2020,09:06,1.301,1.303,1.301,1.303, 2169
03/06/2020,09:07,1.304,1.304,1.304,1.304, 1619
03/06/2020,09:08,1.3005,1.303,1.3005,1.303, 3636
03/06/2020,09:10,1.296,1.303,1.296,1.303, 9401
03/06/2020,09:10,1.3015,1.303,1.3015,1.303, 2047
03/06/2020,09:11,1.301,1.3035,1.3005,1.3015, 12839
03/06/2020,09:13,1.303,1.303,1.2995,1.3025, 9191
03/06/2020,09:13,1.2975,1.303,1.2975,1.303, 4304
03/06/2020,09:14,1.3035,1.3035,1.3035,1.3035, 617
03/06/2020,09:16,1.3038,1.3038,1.3038,1.3038, 722
03/06/2020,09:19,1.306,1.306,1.304,1.306, 13886
03/06/2020,09:19,1.306,1.306,1.3045,1.3045, 2137
03/06/2020,09:20,1.304,1.304,1.3025,1.3025, 6440
03/06/2020,09:21,1.3025,1.304,1.3025,1.304, 1597
03/06/2020,09:23,1.3025,1.304,1.3025,1.304, 802
03/06/2020,09:23,1.3053,1.3053,1.3053,1.3053, 25000
03/06/2020,09:24,1.3045,1.3078,1.3045,1.3078, 15398
03/06/2020,09:26,1.3145,1.3145,1.304,1.304, 19888
03/06/2020,09:27,1.302,1.3035,1.2985,1.2985, 26025
03/06/2020,09:28,1.3035,1.3035,1.303,1.3035, 2552
03/06/2020,09:29,1.3035,1.3035,1.3035,1.3035, 7309
03/06/2020,09:29,1.3035,1.3035,1.3015,1.3035, 17625
03/06/2020,09:31,1.3035,1.3035,1.302,1.302, 13780
03/06/2020,09:32,1.3035,1.3035,1.3005,1.3035, 8596
03/06/2020,09:32,1.3035,1.3035,1.3005,1.303, 5081
03/06/2020,09:34,1.303,1.303,1.3,1.303, 41847
03/06/2020,09:34,1.3015,1.303,1.3,1.303, 38198
03/06/2020,09:35,1.303,1.303,1.303,1.303, 12338
03/06/2020,09:36,1.303,1.303,1.303,1.303, 1108
03/06/2020,09:39,1.303,1.303,1.3025,1.3025, 7914
03/06/2020,09:39,1.303,1.303,1.3025,1.303, 15393
03/06/2020,09:40,1.303,1.303,1.2955,1.303, 60651
03/06/2020,09:43,1.303,1.303,1.3005,1.3005, 827
03/06/2020,09:43,1.303,1.303,1.303,1.303, 1831
03/06/2020,09:46,1.3035,1.306,1.3035,1.306, 6031
03/06/2020,09:48,1.306,1.3065,1.306,1.3065, 8631
03/06/2020,09:50,1.304,1.304,1.304,1.304, 1106
03/06/2020,09:50,1.3,1.3005,1.3,1.3005, 1476
03/06/2020,09:52,1.297,1.297,1.297,1.297, 2500
03/06/2020,09:53,1.3005,1.301,1.3005,1.301, 2379
03/06/2020,09:55,1.3015,1.3025,1.3015,1.3025, 786
03/06/2020,09:56,1.3025,1.3035,1.3025,1.3035, 1669
03/06/2020,09:56,1.3035,1.3035,1.3035,1.3035, 615
03/06/2020,09:57,1.3045,1.3045,1.3025,1.3025, 997
03/06/2020,10:00,1.3065,1.3065,1.3065,1.3065, 3366
03/06/2020,10:01,1.309,1.309,1.309,1.309, 295
03/06/2020,10:02,1.3075,1.3105,1.3075,1.3105, 2576
03/06/2020,10:02,1.312,1.312,1.312,1.312, 679
03/06/2020,10:03,1.3145,1.315,1.3145,1.315, 337
03/06/2020,10:05,1.316,1.316,1.316,1.316, 882
03/06/2020,10:08,1.315,1.3165,1.315,1.3165, 10223
03/06/2020,10:08,1.3155,1.3155,1.314,1.3148, 14004
03/06/2020,10:09,1.314,1.314,1.312,1.312, 20598
03/06/2020,10:11,1.312,1.312,1.3105,1.3105, 3408
03/06/2020,10:12,1.31,1.31,1.309,1.309, 7772
03/06/2020,10:13,1.3105,1.3105,1.3105,1.3105, 6202
03/06/2020,10:14,1.308,1.308,1.3075,1.3075, 1165
03/06/2020,10:15,1.307,1.309,1.307,1.3085, 2195
03/06/2020,10:17,1.305,1.305,1.305,1.305, 3124
03/06/2020,10:19,1.305,1.305,1.305,1.305, 1242
03/06/2020,10:23,1.3035,1.3065,1.3035,1.3065, 3523
03/06/2020,10:24,1.3049,1.3062,1.3049,1.306, 1855
03/06/2020,10:25,1.3035,1.3035,1.3035,1.3035, 2883
03/06/2020,10:26,1.303,1.303,1.303,1.303, 899
03/06/2020,10:27,1.304,1.304,1.303,1.303, 2254
03/06/2020,10:27,1.3035,1.3035,1.3025,1.3033, 2944
03/06/2020,10:29,1.3016,1.3016,1.3015,1.3015, 12889
03/06/2020,10:30,1.302,1.303,1.302,1.303, 5132
03/06/2020,10:31,1.3045,1.3045,1.3045,1.3045, 1881
03/06/2020,10:33,1.3045,1.3045,1.302,1.302, 6239
03/06/2020,10:34,1.3005,1.3005,1.3005,1.3005, 409
03/06/2020,10:35,1.3004,1.3005,1.2995,1.3005, 6410
03/06/2020,10:37,1.301,1.3015,1.299,1.299, 4892
03/06/2020,10:38,1.2995,1.3,1.2985,1.3, 2351
03/06/2020,10:39,1.2985,1.301,1.2985,1.3005, 35213
03/06/2020,10:40,1.2995,1.3015,1.299,1.2995, 13050
03/06/2020,10:41,1.3005,1.3005,1.3005,1.3005, 6479
03/06/2020,10:42,1.2994,1.2994,1.2994,1.2994, 25000
03/06/2020,10:44,1.3005,1.3005,1.2995,1.2995, 14681
03/06/2020,10:44,1.3005,1.3005,1.2995,1.3005, 13494
03/06/2020,10:45,1.3005,1.3005,1.2995,1.3005, 7444
03/06/2020,10:46,1.3005,1.3005,1.2995,1.3005, 15613
03/06/2020,10:48,1.3005,1.3005,1.3005,1.3005, 4128
03/06/2020,10:49,1.2995,1.3005,1.298,1.3005, 85084
03/06/2020,10:50,1.3005,1.3005,1.2995,1.2995, 5532
03/06/2020,10:50,1.3005,1.3005,1.299,1.3005, 14743
03/06/2020,10:52,1.301,1.301,1.3005,1.301, 8343
03/06/2020,10:53,1.3,1.302,1.3,1.302, 18390
03/06/2020,10:55,1.3015,1.3025,1.3015,1.3025, 4266
03/06/2020,10:55,1.302,1.302,1.3015,1.3015, 4928
03/06/2020,10:57,1.3015,1.3015,1.3005,1.3005, 1422
03/06/2020,10:57,1.3005,1.301,1.299,1.301, 21467
03/06/2020,10:58,1.301,1.301,1.299,1.3005, 31034
03/06/2020,10:59,1.3005,1.306,1.2995,1.306, 15926
03/06/2020,11:01,1.3005,1.3005,1.3005,1.3005, 3951
03/06/2020,11:01,1.301,1.3015,1.301,1.3015, 9803
03/06/2020,11:03,1.3009,1.3015,1.3009,1.301, 9811
03/06/2020,11:04,1.301,1.3015,1.301,1.301, 5799
03/06/2020,11:05,1.301,1.301,1.3,1.3006, 3164
03/06/2020,11:08,1.3005,1.3005,1.299,1.3005, 33270
03/06/2020,11:08,1.3005,1.3005,1.3005,1.3005, 2165
03/06/2020,11:09,1.3005,1.3005,1.3,1.3005, 11583
03/06/2020,11:10,1.3003,1.3005,1.2995,1.2995, 4750
03/06/2020,11:12,1.3005,1.301,1.299,1.301, 19924
03/06/2020,11:12,1.3015,1.3015,1.3015,1.3015, 6963
03/06/2020,11:14,1.3005,1.3005,1.3,1.3, 1367
03/06/2020,11:14,1.3,1.3005,1.3,1.3005, 4026
03/06/2020,11:15,1.3005,1.3005,1.3005,1.3005, 4756
03/06/2020,11:18,1.2995,1.301,1.2995,1.3, 10391
03/06/2020,11:20,1.301,1.301,1.3005,1.3005, 6079
03/06/2020,11:22,1.3,1.3005,1.3,1.3005, 3008
03/06/2020,11:22,1.3005,1.3005,1.3,1.3005, 2326
03/06/2020,11:23,1.3,1.3005,1.3,1.3005, 5875
03/06/2020,11:25,1.3005,1.3005,1.3,1.3, 7032
03/06/2020,11:26,1.2998,1.301,1.2995,1.2998, 23036
03/06/2020,11:26,1.3,1.3005,1.3,1.3005, 16452
03/06/2020,11:28,1.2995,1.2995,1.2995,1.2995, 1539
03/06/2020,11:29,1.3,1.3,1.3,1.3, 3795
03/06/2020,11:31,1.2995,1.2995,1.2964,1.2964, 4962
03/06/2020,11:33,1.297,1.297,1.296,1.296, 3615
03/06/2020,11:34,1.296,1.296,1.296,1.296, 61
03/06/2020,11:36,1.298,1.298,1.297,1.297, 10070
03/06/2020,11:36,1.296,1.297,1.296,1.297, 7861
03/06/2020,11:37,1.297,1.297,1.296,1.2967, 8162
03/06/2020,11:39,1.2955,1.297,1.2955,1.297, 29552
03/06/2020,11:40,1.297,1.297,1.296,1.2963, 18185
03/06/2020,11:40,1.297,1.297,1.297,1.297, 2489
03/06/2020,11:41,1.2969,1.2975,1.2969,1.297, 14534
03/06/2020,11:42,1.2965,1.2965,1.2965,1.2965, 2383
03/06/2020,11:44,1.2971,1.2971,1.296,1.296, 5098
03/06/2020,11:45,1.297,1.297,1.297,1.297, 161
03/06/2020,11:46,1.2975,1.2975,1.2975,1.2975, 5561
03/06/2020,11:46,1.2975,1.298,1.2975,1.298, 1789
03/06/2020,11:48,1.297,1.297,1.2965,1.2965, 4592
03/06/2020,11:48,1.2975,1.2985,1.2975,1.2975, 6878
03/06/2020,11:50,1.297,1.297,1.297,1.297, 2472
03/06/2020,11:52,1.297,1.2975,1.297,1.297, 4367
03/06/2020,11:52,1.297,1.2975,1.297,1.2975, 2372
03/06/2020,11:53,1.2975,1.2975,1.2965,1.2965, 6605
03/06/2020,11:54,1.2975,1.2985,1.2975,1.2984, 11267
03/06/2020,11:56,1.299,1.3,1.2985,1.2995, 10307
03/06/2020,11:56,1.3,1.3005,1.2975,1.2985, 20163
03/06/2020,11:58,1.3,1.301,1.3,1.3005, 9693
03/06/2020,12:00,1.3015,1.3015,1.301,1.301, 17500
03/06/2020,12:00,1.3015,1.3015,1.3015,1.3015, 1865
03/06/2020,12:01,1.302,1.3025,1.302,1.3025, 2437
03/06/2020,12:02,1.303,1.3038,1.303,1.3038, 645
03/06/2020,12:06,1.305,1.3085,1.305,1.3075, 1699
03/06/2020,12:06,1.308,1.308,1.308,1.308, 978
03/06/2020,12:07,1.3075,1.3075,1.3075,1.3075, 3645
03/06/2020,12:08,1.307,1.307,1.306,1.306, 4633
03/06/2020,12:09,1.3065,1.3065,1.3065,1.3065, 108
03/06/2020,12:10,1.306,1.306,1.303,1.3035, 17428
03/06/2020,12:12,1.304,1.304,1.304,1.304, 618
03/06/2020,12:13,1.3025,1.3025,1.3025,1.3025, 522
03/06/2020,12:13,1.302,1.302,1.302,1.302, 3953
03/06/2020,12:15,1.303,1.303,1.302,1.302, 7189
03/06/2020,12:17,1.301,1.301,1.301,1.301, 1803
03/06/2020,12:19,1.301,1.302,1.301,1.302, 1623
03/06/2020,12:20,1.3025,1.3025,1.3025,1.3025, 1873
03/06/2020,12:21,1.302,1.302,1.3015,1.3015, 2279
03/06/2020,12:23,1.3005,1.3005,1.3005,1.3005, 2778
03/06/2020,12:25,1.3,1.3,1.2995,1.3, 38286
03/06/2020,12:25,1.3005,1.3005,1.3005,1.3005, 6312
03/06/2020,12:27,1.2995,1.301,1.2995,1.301, 13513
03/06/2020,12:27,1.3009,1.3009,1.2965,1.297, 13801
03/06/2020,12:28,1.297,1.297,1.297,1.297, 3380
03/06/2020,12:29,1.297,1.297,1.297,1.297, 2117
03/06/2020,12:32,1.2975,1.299,1.2975,1.2975, 19381
03/06/2020,12:34,1.2962,1.297,1.2962,1.297, 7329
03/06/2020,12:34,1.2965,1.297,1.2965,1.297, 6650
03/06/2020,12:35,1.298,1.298,1.298,1.298, 1149
03/06/2020,12:36,1.299,1.3015,1.2985,1.3015, 9494
03/06/2020,12:38,1.3,1.3,1.2985,1.2995, 9758
03/06/2020,12:38,1.2985,1.2995,1.2985,1.2985, 2213
03/06/2020,12:40,1.2995,1.3015,1.2995,1.3015, 6788
03/06/2020,12:41,1.3015,1.3015,1.3015,1.3015, 10915
03/06/2020,12:42,1.302,1.3025,1.302,1.3025, 1210
03/06/2020,12:44,1.302,1.303,1.302,1.303, 6038
03/06/2020,12:44,1.302,1.302,1.3015,1.302, 9712
03/06/2020,12:46,1.3015,1.3015,1.3015,1.3015, 1011
03/06/2020,12:46,1.301,1.301,1.301,1.301, 1769
03/06/2020,12:47,1.3025,1.3025,1.3025,1.3025, 535
03/06/2020,12:50,1.303,1.303,1.3025,1.303, 2793
03/06/2020,12:51,1.3035,1.3045,1.3035,1.3045, 5142
03/06/2020,12:52,1.3055,1.3055,1.304,1.304, 3916
03/06/2020,12:53,1.3035,1.3035,1.3025,1.3025, 2845
03/06/2020,12:54,1.3032,1.3032,1.3032,1.3032, 3063
03/06/2020,12:56,1.3035,1.3035,1.3035,1.3035, 939
03/06/2020,12:57,1.3025,1.3025,1.3025,1.3025, 424
03/06/2020,12:58,1.302,1.302,1.3015,1.3015, 3714
03/06/2020,12:59,1.3015,1.3015,1.3015,1.3015, 908
03/06/2020,13:00,1.3015,1.3015,1.3015,1.3015, 424
03/06/2020,13:03,1.305,1.305,1.3005,1.3005, 9426
03/06/2020,13:04,1.302,1.302,1.302,1.302, 336
03/06/2020,13:05,1.3025,1.3025,1.3025,1.3025, 503
03/06/2020,13:06,1.3015,1.302,1.301,1.302, 8901
03/06/2020,13:08,1.303,1.303,1.303,1.303, 3453
03/06/2020,13:09,1.302,1.302,1.3015,1.3015, 4527
03/06/2020,13:11,1.3015,1.3015,1.3015,1.3015, 24
03/06/2020,13:14,1.3015,1.3015,1.3005,1.3005, 7687
03/06/2020,13:15,1.3011,1.3011,1.3011,1.3011, 1380
03/06/2020,13:15,1.301,1.3015,1.301,1.301, 4276
03/06/2020,13:16,1.3005,1.3015,1.3,1.3015, 5642
03/06/2020,13:18,1.3005,1.3023,1.3005,1.3023, 41436
03/06/2020,13:18,1.3005,1.301,1.3005,1.301, 200
03/06/2020,13:19,1.301,1.301,1.301,1.301, 3000
03/06/2020,13:20,1.301,1.3015,1.301,1.3015, 3603
03/06/2020,13:23,1.3005,1.3015,1.3005,1.3015, 12169
03/06/2020,13:24,1.3005,1.3005,1.3,1.3, 52709
03/06/2020,13:25,1.3,1.301,1.3,1.301, 10921
03/06/2020,13:26,1.3,1.3,1.2965,1.297, 15426
03/06/2020,13:28,1.2965,1.2965,1.2965,1.2965, 20
03/06/2020,13:31,1.2975,1.2975,1.2975,1.2975, 1688
03/06/2020,13:32,1.2975,1.298,1.2975,1.298, 11981
03/06/2020,13:35,1.298,1.298,1.297,1.297, 7208
03/06/2020,13:35,1.2965,1.2975,1.2965,1.2975, 11385
03/06/2020,13:36,1.298,1.2985,1.298,1.298, 4847
03/06/2020,13:38,1.299,1.3,1.299,1.2995, 9854
03/06/2020,13:41,1.2995,1.301,1.2995,1.3005, 12746
03/06/2020,13:41,1.3005,1.3005,1.3005,1.3005, 3879
03/06/2020,13:43,1.3,1.3005,1.2995,1.3005, 8967
03/06/2020,13:43,1.3,1.3,1.3,1.3, 6120
03/06/2020,13:44,1.3,1.3,1.299,1.2995, 15144
03/06/2020,13:45,1.299,1.3,1.299,1.3, 3976
03/06/2020,13:47,1.3,1.301,1.3,1.3, 12000
03/06/2020,13:47,1.3,1.3015,1.3,1.301, 15734
03/06/2020,13:49,1.3005,1.3005,1.2995,1.3, 12406
03/06/2020,13:49,1.3,1.3,1.2995,1.2995, 24502
03/06/2020,13:51,1.3,1.3005,1.3,1.3005, 3135
03/06/2020,13:51,1.3,1.3,1.3,1.3, 3348
03/06/2020,13:52,1.2995,1.2995,1.2985,1.2985, 11522
03/06/2020,13:54,1.2975,1.2975,1.2975,1.2975, 532
03/06/2020,13:55,1.2975,1.2975,1.297,1.297, 8024
03/06/2020,13:55,1.2985,1.299,1.2985,1.299, 4623
03/06/2020,13:56,1.2985,1.2985,1.2985,1.2985, 7011
03/06/2020,13:58,1.2995,1.2995,1.2995,1.2995, 617
03/06/2020,13:59,1.3005,1.3005,1.3005,1.3005, 619
03/06/2020,14:00,1.3015,1.3015,1.3015,1.3015, 309
03/06/2020,14:01,1.3025,1.3025,1.302,1.302, 10543
03/06/2020,14:03,1.3015,1.3015,1.3015,1.3015, 2112
03/06/2020,14:04,1.3015,1.3015,1.3005,1.3005, 731
03/06/2020,14:04,1.3015,1.3015,1.3015,1.3015, 2596
03/06/2020,14:05,1.3004,1.3004,1.3004,1.3004, 25000
03/06/2020,14:06,1.3015,1.302,1.301,1.301, 16410
03/06/2020,14:07,1.301,1.301,1.301,1.301, 5737
03/06/2020,14:08,1.3,1.3,1.3,1.3, 1138
03/06/2020,14:09,1.301,1.301,1.301,1.301, 618
03/06/2020,14:11,1.3,1.3,1.299,1.299, 9110
03/06/2020,14:12,1.298,1.298,1.298,1.298, 1737
03/06/2020,14:13,1.299,1.3,1.2985,1.3, 9488
03/06/2020,14:14,1.3,1.3,1.299,1.299, 3069
03/06/2020,14:15,1.2985,1.299,1.2985,1.299, 4329
03/06/2020,14:16,1.299,1.299,1.298,1.298, 5842
03/06/2020,14:17,1.299,1.299,1.299,1.299, 2000
03/06/2020,14:19,1.299,1.3,1.299,1.3, 4163
03/06/2020,14:20,1.302,1.302,1.302,1.302, 479
03/06/2020,14:21,1.3025,1.3035,1.3025,1.3035, 2716
03/06/2020,14:23,1.3025,1.3025,1.302,1.302, 6601
03/06/2020,14:24,1.302,1.302,1.302,1.302, 362
03/06/2020,14:29,1.3015,1.3015,1.3015,1.3015, 1584
03/06/2020,14:29,1.301,1.301,1.3005,1.3005, 3280
03/06/2020,14:31,1.301,1.302,1.301,1.302, 7319
03/06/2020,14:32,1.302,1.3025,1.302,1.3025, 4097
03/06/2020,14:32,1.3025,1.3035,1.3025,1.3035, 2552
03/06/2020,14:33,1.3025,1.3025,1.301,1.3015, 40040
03/06/2020,14:34,1.3015,1.3015,1.3001,1.3001, 21053
03/06/2020,14:35,1.3015,1.302,1.3015,1.302, 934
03/06/2020,14:37,1.304,1.304,1.304,1.304, 229
03/06/2020,14:38,1.3045,1.3045,1.3025,1.3025, 999
03/06/2020,14:39,1.3035,1.3035,1.3015,1.3015, 16946
03/06/2020,14:42,1.3015,1.3015,1.3,1.3, 9456
03/06/2020,14:42,1.3,1.3,1.3,1.3, 2000
03/06/2020,14:43,1.3005,1.301,1.2995,1.2995, 10333
03/06/2020,14:45,1.3005,1.3005,1.3,1.3, 4774
03/06/2020,14:47,1.3015,1.3015,1.3015,1.3015, 2935
03/06/2020,14:48,1.302,1.3035,1.302,1.3035, 5389
03/06/2020,14:49,1.3035,1.305,1.3035,1.305, 11423
03/06/2020,14:50,1.3065,1.3065,1.306,1.306, 15810
03/06/2020,14:52,1.307,1.307,1.3055,1.3055, 4157
03/06/2020,14:52,1.304,1.304,1.304,1.304, 739
03/06/2020,14:53,1.3035,1.304,1.3035,1.3035, 4617
03/06/2020,14:55,1.3025,1.3035,1.3025,1.3035, 1512
03/06/2020,14:55,1.3045,1.3045,1.3045,1.3045, 171
03/06/2020,14:57,1.3055,1.3065,1.3055,1.3065, 270
03/06/2020,14:57,1.306,1.306,1.306,1.306, 2374
03/06/2020,14:58,1.305,1.305,1.3035,1.3035, 4456
03/06/2020,14:59,1.3035,1.3035,1.3035,1.3035, 10812
03/06/2020,15:01,1.3035,1.3035,1.303,1.303, 1299
03/06/2020,15:04,1.304,1.304,1.3025,1.3025, 3818
03/06/2020,15:04,1.302,1.302,1.302,1.302, 1850
03/06/2020,15:06,1.302,1.302,1.3005,1.3005, 3504
03/06/2020,15:07,1.2995,1.3,1.2995,1.3, 2825
03/06/2020,15:09,1.299,1.301,1.299,1.301, 990
03/06/2020,15:09,1.3005,1.3005,1.2995,1.3, 11542
03/06/2020,15:10,1.299,1.3005,1.299,1.3005, 25374
03/06/2020,15:12,1.301,1.3015,1.301,1.301, 7493
03/06/2020,15:12,1.3005,1.3005,1.3005,1.3005, 11124
03/06/2020,15:13,1.301,1.3015,1.301,1.3015, 4492
03/06/2020,15:15,1.3,1.301,1.3,1.301, 16496
03/06/2020,15:16,1.3,1.3,1.3,1.3, 1644
03/06/2020,15:17,1.3,1.3005,1.3,1.3005, 2586
03/06/2020,15:18,1.3005,1.301,1.3005,1.301, 3152
03/06/2020,15:19,1.3015,1.3015,1.301,1.301, 6698
03/06/2020,15:20,1.3015,1.302,1.3015,1.302, 6487
03/06/2020,15:24,1.301,1.301,1.3005,1.3005, 5854
03/06/2020,15:24,1.301,1.301,1.301,1.301, 470
03/06/2020,15:25,1.3015,1.302,1.3,1.3, 18288
03/06/2020,15:26,1.3,1.3,1.2995,1.3, 3599
03/06/2020,15:27,1.299,1.299,1.299,1.299, 1966
03/06/2020,15:29,1.3,1.3005,1.3,1.3005, 2046
03/06/2020,15:30,1.301,1.301,1.301,1.301, 28
03/06/2020,15:31,1.3005,1.3005,1.3005,1.3005, 3389
03/06/2020,15:32,1.301,1.3015,1.2995,1.2995, 8321
03/06/2020,15:33,1.2995,1.301,1.299,1.301, 11838
03/06/2020,15:34,1.3015,1.3025,1.301,1.3025, 17868
03/06/2020,15:35,1.301,1.301,1.3005,1.3005, 6139
03/06/2020,15:36,1.2995,1.3,1.299,1.3, 4689
03/06/2020,15:36,1.3,1.3,1.3,1.3, 5370
03/06/2020,15:38,1.3025,1.303,1.3015,1.302, 5661
03/06/2020,15:39,1.3055,1.3055,1.305,1.305, 4061
03/06/2020,15:40,1.3045,1.306,1.304,1.306, 8286
03/06/2020,15:40,1.3062,1.3062,1.305,1.305, 1687
03/06/2020,15:43,1.3025,1.303,1.302,1.303, 4999
03/06/2020,15:45,1.304,1.3045,1.304,1.3045, 2222
03/06/2020,15:46,1.305,1.305,1.3025,1.3025, 8456
03/06/2020,15:47,1.302,1.303,1.302,1.3025, 5538
03/06/2020,15:47,1.302,1.302,1.302,1.302, 702
03/06/2020,15:48,1.303,1.303,1.303,1.303, 2577
03/06/2020,15:49,1.303,1.303,1.302,1.302, 567
03/06/2020,15:50,1.302,1.3025,1.302,1.302, 2784
03/06/2020,15:51,1.301,1.301,1.2995,1.2995, 11601
03/06/2020,15:52,1.3,1.301,1.3,1.3005, 14193
03/06/2020,15:52,1.3005,1.3005,1.3005,1.3005, 6705
03/06/2020,15:54,1.3015,1.3015,1.3015,1.3015, 3858
03/06/2020,15:54,1.3005,1.301,1.3005,1.301, 12023
03/06/2020,15:55,1.3005,1.3015,1.3005,1.3015, 4745
03/06/2020,15:56,1.3035,1.305,1.303,1.305, 21613
03/06/2020,15:57,1.3045,1.3045,1.3045,1.3045, 6087
03/06/2020,15:59,1.3035,1.3045,1.303,1.304, 13369
03/06/2020,16:00,1.305,1.306,1.3045,1.305, 9599
03/06/2020,16:01,1.3045,1.305,1.304,1.305, 9993
03/06/2020,16:02,1.3055,1.3055,1.305,1.305, 12906
03/06/2020,16:03,1.306,1.3065,1.3055,1.3055, 3790
03/06/2020,16:05,1.307,1.3075,1.306,1.306, 10593
03/06/2020,16:05,1.3075,1.3075,1.3075,1.3075, 993
03/06/2020,16:06,1.3085,1.3085,1.308,1.308, 10476
03/06/2020,16:09,1.306,1.306,1.3055,1.3055, 4183
03/06/2020,16:09,1.305,1.3065,1.305,1.3065, 5808
03/06/2020,16:10,1.3055,1.3055,1.3045,1.3045, 2666
03/06/2020,16:12,1.3035,1.3035,1.3035,1.3035, 2121
03/06/2020,16:12,1.304,1.308,1.304,1.306, 17334
03/06/2020,16:13,1.306,1.306,1.304,1.304, 6617
03/06/2020,16:13,1.304,1.304,1.304,1.304, 2000
03/06/2020,16:15,1.3045,1.3045,1.3035,1.3035, 1553
03/06/2020,16:16,1.3065,1.3065,1.3065,1.3065, 4232
03/06/2020,16:17,1.3065,1.3065,1.306,1.306, 11313
03/06/2020,16:18,1.306,1.306,1.3055,1.3055, 7824
03/06/2020,16:19,1.3065,1.307,1.3065,1.3065, 3493
03/06/2020,16:20,1.307,1.308,1.307,1.3075, 5559
03/06/2020,16:21,1.3075,1.3075,1.306,1.306, 18362
03/06/2020,16:22,1.3075,1.3075,1.306,1.3065, 20828
03/06/2020,16:24,1.306,1.3075,1.306,1.306, 12273
03/06/2020,16:25,1.3075,1.308,1.307,1.308, 8554
03/06/2020,16:26,1.3065,1.309,1.3065,1.3085, 11578
03/06/2020,16:27,1.3095,1.311,1.3095,1.311, 11549
03/06/2020,16:28,1.311,1.3135,1.311,1.3135, 5246
03/06/2020,16:29,1.3145,1.3145,1.3125,1.3125, 15438
03/06/2020,16:30,1.312,1.3135,1.3115,1.3135, 8666
03/06/2020,16:31,1.315,1.316,1.314,1.3155, 6850
03/06/2020,16:32,1.318,1.318,1.3155,1.3155, 7459
03/06/2020,16:32,1.315,1.3165,1.315,1.315, 4888
03/06/2020,16:34,1.3145,1.3145,1.312,1.312, 11041
03/06/2020,16:34,1.3127,1.3127,1.3125,1.3125, 7212
03/06/2020,16:36,1.311,1.311,1.31,1.31, 3684
03/06/2020,16:37,1.31,1.311,1.31,1.311, 5876
03/06/2020,16:38,1.3105,1.3105,1.3105,1.3105, 3750
03/06/2020,16:39,1.311,1.311,1.311,1.311, 2164
03/06/2020,16:40,1.3125,1.3135,1.3125,1.3135, 2150
03/06/2020,16:41,1.314,1.314,1.3135,1.3135, 15180
03/06/2020,16:42,1.314,1.314,1.3135,1.314, 3603
03/06/2020,16:43,1.3135,1.316,1.313,1.316, 19810
03/06/2020,16:44,1.318,1.318,1.318,1.318, 1006
03/06/2020,16:45,1.3175,1.318,1.3175,1.3175, 7610
03/06/2020,16:46,1.3165,1.3165,1.316,1.3165, 11604
03/06/2020,16:46,1.3155,1.3155,1.3155,1.3155, 274
03/06/2020,16:48,1.315,1.315,1.3145,1.3145, 3912
03/06/2020,16:48,1.315,1.316,1.315,1.316, 2343
03/06/2020,16:49,1.316,1.316,1.3145,1.3145, 11504
03/06/2020,16:51,1.314,1.3155,1.314,1.3155, 6804
03/06/2020,16:52,1.3151,1.3155,1.3145,1.3145, 2341
03/06/2020,16:52,1.314,1.3145,1.3135,1.3145, 8530
03/06/2020,16:54,1.313,1.313,1.313,1.313, 256
03/06/2020,16:54,1.313,1.3135,1.313,1.3135, 7233
03/06/2020,16:55,1.314,1.315,1.314,1.314, 5201
03/06/2020,16:56,1.315,1.315,1.3145,1.3145, 4758
03/06/2020,16:56,1.314,1.314,1.314,1.314, 3673
03/06/2020,16:58,1.3145,1.3145,1.312,1.312, 14454
03/06/2020,16:59,1.3115,1.3115,1.3105,1.3105, 4354
03/06/2020,17:00,1.3105,1.3115,1.3105,1.3115, 14138
03/06/2020,17:01,1.3115,1.313,1.3115,1.313, 14192
03/06/2020,17:02,1.313,1.313,1.3125,1.3125, 18309
03/06/2020,17:03,1.3125,1.3125,1.3105,1.3105, 4343
03/06/2020,17:04,1.3095,1.3105,1.3095,1.3105, 6821
03/06/2020,17:05,1.309,1.3095,1.3085,1.3095, 5504
03/06/2020,17:05,1.309,1.309,1.309,1.309, 1447
03/06/2020,17:06,1.309,1.309,1.309,1.309, 407
03/06/2020,17:07,1.309,1.3105,1.309,1.3105, 5832
03/06/2020,17:09,1.31,1.31,1.3095,1.3095, 9846
03/06/2020,17:11,1.3095,1.31,1.3075,1.3075, 14022
03/06/2020,17:12,1.308,1.308,1.3075,1.3075, 4628
03/06/2020,17:13,1.3075,1.3075,1.307,1.3075, 6350
03/06/2020,17:14,1.3065,1.308,1.3065,1.308, 6854
03/06/2020,17:15,1.307,1.3075,1.3065,1.3065, 2690
03/06/2020,17:17,1.306,1.3065,1.306,1.3065, 10002
03/06/2020,17:18,1.307,1.3075,1.306,1.3075, 9890
03/06/2020,17:19,1.307,1.3075,1.307,1.307, 8064
03/06/2020,17:20,1.307,1.307,1.306,1.3065, 5662
03/06/2020,17:21,1.306,1.306,1.305,1.306, 12350
03/06/2020,17:22,1.306,1.3065,1.3055,1.3065, 7890
03/06/2020,17:23,1.3055,1.3055,1.304,1.304, 22278
03/06/2020,17:24,1.3045,1.3055,1.304,1.304, 8914
03/06/2020,17:25,1.3035,1.3045,1.3035,1.304, 11302
03/06/2020,17:26,1.304,1.3085,1.304,1.308, 11891
03/06/2020,17:27,1.309,1.309,1.3075,1.308, 8235
03/06/2020,17:29,1.3075,1.3075,1.3055,1.3055, 8868
03/06/2020,17:30,1.306,1.3065,1.306,1.3065, 4455
03/06/2020,17:30,1.306,1.307,1.306,1.306, 3896
03/06/2020,17:36,1.3055,1.3055,1.3055,1.3055, 984166
03/06/2020,17:37,1.3055,1.3055,1.3055,1.3055, 5000
03/06/2020,17:39,1.3055,1.3055,1.3055,1.3055, 7000
03/09/2020,09:07,1.14,1.14,1.138,1.138, 25532
03/09/2020,09:08,1.13,1.133,1.1252,1.132, 11777
03/09/2020,09:09,1.125,1.125,1.1005,1.107, 172344
03/09/2020,09:10,1.109,1.109,1.1055,1.1055, 1193
03/09/2020,09:11,1.1057,1.108,1.101,1.101, 13267
03/09/2020,09:12,1.108,1.108,1.108,1.108, 3000
03/09/2020,09:13,1.1015,1.1015,1.0905,1.0915, 45515
03/09/2020,09:14,1.094,1.0975,1.094,1.0975, 13940
03/09/2020,09:15,1.0955,1.102,1.0915,1.0948, 59074
03/09/2020,09:16,1.1045,1.112,1.1025,1.112, 3070
03/09/2020,09:17,1.112,1.1325,1.112,1.1325, 46726
03/09/2020,09:18,1.1315,1.1455,1.1315,1.1455, 66703
03/09/2020,09:19,1.1415,1.144,1.1385,1.1412, 16964
03/09/2020,09:20,1.144,1.145,1.144,1.145, 8853
03/09/2020,09:21,1.138,1.144,1.138,1.144, 13993
03/09/2020,09:22,1.1455,1.1575,1.1425,1.1575, 5024
03/09/2020,09:23,1.154,1.154,1.154,1.154, 342
03/09/2020,09:24,1.15,1.154,1.15,1.1535, 10995
03/09/2020,09:24,1.154,1.154,1.154,1.154, 3981
03/09/2020,09:26,1.158,1.158,1.158,1.158, 295
03/09/2020,09:27,1.158,1.1585,1.158,1.1585, 3000
03/09/2020,09:29,1.154,1.1615,1.154,1.1615, 8009
03/09/2020,09:33,1.1595,1.162,1.1595,1.1615, 12266
03/09/2020,09:34,1.1635,1.1645,1.158,1.158, 68239
03/09/2020,09:35,1.1595,1.169,1.159,1.169, 33345
03/09/2020,09:36,1.168,1.168,1.1635,1.1635, 12160
03/09/2020,09:37,1.164,1.1685,1.164,1.1685, 3543
03/09/2020,09:38,1.164,1.1685,1.164,1.1685, 1725
03/09/2020,09:39,1.1635,1.1635,1.1575,1.1575, 17053
03/09/2020,09:40,1.1563,1.1585,1.152,1.158, 22082
03/09/2020,09:41,1.1585,1.1585,1.157,1.1575, 23521
03/09/2020,09:42,1.1555,1.1575,1.1525,1.1525, 13814
03/09/2020,09:43,1.1525,1.1525,1.152,1.152, 2121
03/09/2020,09:45,1.1545,1.1585,1.1525,1.1525, 14759
03/09/2020,09:46,1.158,1.158,1.1547,1.1575, 6970
03/09/2020,09:47,1.158,1.1605,1.158,1.1605, 5927
03/09/2020,09:48,1.158,1.158,1.1555,1.1575, 9280
03/09/2020,09:49,1.1545,1.1565,1.1525,1.1565, 17910
03/09/2020,09:49,1.1575,1.1575,1.1575,1.1575, 471
03/09/2020,09:51,1.1575,1.1585,1.1575,1.1585, 3793
03/09/2020,09:52,1.158,1.159,1.1575,1.1575, 3982
03/09/2020,09:53,1.1584,1.1584,1.155,1.155, 3613
03/09/2020,09:54,1.1555,1.1575,1.1555,1.1575, 7658
03/09/2020,09:55,1.1555,1.1555,1.1545,1.1545, 788
03/09/2020,09:56,1.1555,1.156,1.155,1.156, 2308
03/09/2020,09:57,1.157,1.1635,1.157,1.163, 56258
03/09/2020,09:58,1.162,1.1625,1.162,1.162, 5378
03/09/2020,09:59,1.1615,1.1615,1.157,1.157, 9131
03/09/2020,10:00,1.1565,1.1595,1.156,1.1595, 7792
03/09/2020,10:01,1.155,1.165,1.155,1.165, 11980
03/09/2020,10:02,1.1645,1.172,1.162,1.172, 54730
03/09/2020,10:03,1.174,1.174,1.172,1.172, 6068
03/09/2020,10:04,1.176,1.1775,1.1725,1.1775, 6370
03/09/2020,10:05,1.1775,1.1815,1.1755,1.1815, 9614
03/09/2020,10:06,1.1815,1.1815,1.179,1.179, 4607
03/09/2020,10:07,1.1755,1.1775,1.1755,1.1775, 2424
03/09/2020,10:08,1.1755,1.1755,1.173,1.1745, 5863
03/09/2020,10:09,1.1805,1.1805,1.1805,1.1805, 375
03/09/2020,10:10,1.18,1.18,1.18,1.18, 2000
03/09/2020,10:11,1.1795,1.1795,1.179,1.179, 4544
03/09/2020,10:12,1.1845,1.1845,1.1785,1.1785, 3104
03/09/2020,10:13,1.18,1.182,1.18,1.182, 626
03/09/2020,10:15,1.1865,1.187,1.1865,1.187, 1712
03/09/2020,10:17,1.186,1.1885,1.186,1.1885, 3566
03/09/2020,10:17,1.1865,1.1865,1.1865,1.1865, 3678
03/09/2020,10:19,1.186,1.186,1.184,1.1846, 4509
03/09/2020,10:20,1.1845,1.1845,1.183,1.1845, 9102
03/09/2020,10:21,1.187,1.187,1.1855,1.1855, 6518
03/09/2020,10:22,1.185,1.1858,1.1835,1.1858, 15492
03/09/2020,10:23,1.185,1.1875,1.184,1.1875, 9281
03/09/2020,10:24,1.19,1.192,1.1895,1.191, 6055
03/09/2020,10:25,1.198,1.198,1.1955,1.1955, 2659
03/09/2020,10:26,1.197,1.197,1.192,1.192, 15853
03/09/2020,10:27,1.1943,1.1943,1.1943,1.1943, 3905
03/09/2020,10:28,1.1925,1.2055,1.1925,1.2055, 5329
03/09/2020,10:29,1.203,1.2065,1.202,1.2055, 15726
03/09/2020,10:30,1.206,1.21,1.2055,1.2065, 18465
03/09/2020,10:31,1.206,1.2105,1.2005,1.2005, 9672
03/09/2020,10:32,1.1995,1.1995,1.1945,1.197, 8345
03/09/2020,10:33,1.2005,1.2005,1.1935,1.194, 28266
03/09/2020,10:34,1.1935,1.1935,1.189,1.1925, 32719
03/09/2020,10:35,1.195,1.195,1.19,1.1905, 15996
03/09/2020,10:36,1.1895,1.1975,1.189,1.1967, 29164
03/09/2020,10:37,1.1945,1.1975,1.194,1.1975, 13759
03/09/2020,10:38,1.1988,1.1988,1.196,1.196, 7526
03/09/2020,10:39,1.195,1.1965,1.1925,1.1965, 11824
03/09/2020,10:40,1.1965,1.1965,1.1945,1.1958, 2886
03/09/2020,10:41,1.1957,1.1995,1.1945,1.1985, 5801
03/09/2020,10:42,1.196,1.196,1.196,1.196, 2144
03/09/2020,10:43,1.195,1.199,1.195,1.199, 6474
03/09/2020,10:44,1.1955,1.1975,1.195,1.1975, 9788
03/09/2020,10:45,1.197,1.1995,1.195,1.1995, 34092
03/09/2020,10:46,1.203,1.205,1.2,1.2032, 15713
03/09/2020,10:47,1.2015,1.203,1.201,1.201, 3503
03/09/2020,10:48,1.2005,1.2005,1.1975,1.1975, 14124
03/09/2020,10:49,1.198,1.1995,1.198,1.1995, 9486
03/09/2020,10:50,1.201,1.203,1.2,1.2, 5730
03/09/2020,10:51,1.2,1.202,1.1995,1.1995, 11004
03/09/2020,10:52,1.1995,1.1995,1.198,1.198, 13031
03/09/2020,10:53,1.1975,1.198,1.1975,1.198, 2638
03/09/2020,10:54,1.1995,1.2005,1.1995,1.2005, 1783
03/09/2020,10:55,1.2035,1.205,1.2035,1.205, 6091
03/09/2020,10:56,1.204,1.206,1.203,1.206, 17864
03/09/2020,10:57,1.207,1.211,1.206,1.2105, 29843
03/09/2020,10:58,1.2075,1.2075,1.206,1.206, 6404
03/09/2020,10:59,1.208,1.208,1.208,1.208, 1021
03/09/2020,11:00,1.208,1.208,1.2073,1.2073, 6555
03/09/2020,11:02,1.2065,1.2065,1.206,1.206, 4206
03/09/2020,11:03,1.208,1.208,1.2045,1.205, 24652
03/09/2020,11:04,1.2035,1.208,1.2035,1.208, 20989
03/09/2020,11:05,1.209,1.2105,1.2075,1.2105, 20226
03/09/2020,11:06,1.2105,1.2105,1.208,1.208, 6720
03/09/2020,11:08,1.207,1.207,1.207,1.207, 3961
03/09/2020,11:09,1.206,1.2066,1.206,1.2065, 9372
03/09/2020,11:11,1.206,1.2075,1.2045,1.205, 30333
03/09/2020,11:12,1.2045,1.2045,1.204,1.2045, 8261
03/09/2020,11:13,1.2045,1.2045,1.2045,1.2045, 1874
03/09/2020,11:14,1.206,1.206,1.206,1.206, 6
03/09/2020,11:15,1.2035,1.2045,1.2035,1.2035, 3670
03/09/2020,11:16,1.2025,1.2045,1.2025,1.204, 10666
03/09/2020,11:17,1.2055,1.2092,1.2055,1.2092, 10738
03/09/2020,11:18,1.2075,1.209,1.2075,1.208, 5007
03/09/2020,11:19,1.208,1.208,1.2075,1.2075, 3431
03/09/2020,11:20,1.21,1.21,1.2075,1.2075, 5249
03/09/2020,11:21,1.2065,1.2065,1.2065,1.2065, 1901
03/09/2020,11:21,1.206,1.2075,1.206,1.2075, 5826
03/09/2020,11:24,1.205,1.205,1.205,1.205, 506
03/09/2020,11:25,1.2065,1.207,1.2065,1.207, 2676
03/09/2020,11:25,1.2085,1.2085,1.2085,1.2085, 4723
03/09/2020,11:27,1.207,1.207,1.207,1.207, 172
03/09/2020,11:28,1.2073,1.2073,1.2065,1.2065, 3334
03/09/2020,11:29,1.208,1.2105,1.208,1.2105, 2168
03/09/2020,11:29,1.2115,1.2115,1.211,1.211, 5810
03/09/2020,11:31,1.2085,1.2085,1.2085,1.2085, 2071
03/09/2020,11:32,1.2085,1.209,1.2085,1.209, 6249
03/09/2020,11:33,1.2105,1.211,1.2086,1.2086, 25857
03/09/2020,11:34,1.211,1.2253,1.208,1.2175, 417054
03/09/2020,11:35,1.2175,1.2175,1.217,1.2175, 28780
03/09/2020,11:36,1.219,1.2215,1.219,1.2215, 8794
03/09/2020,11:37,1.222,1.228,1.221,1.224, 61652
03/09/2020,11:37,1.2235,1.2235,1.2235,1.2235, 1031
03/09/2020,11:39,1.2205,1.2205,1.2205,1.2205, 2000
03/09/2020,11:40,1.22,1.22,1.2165,1.219, 10165
03/09/2020,11:41,1.2175,1.2175,1.2175,1.2175, 1187
03/09/2020,11:42,1.2155,1.2155,1.2155,1.2155, 776
03/09/2020,11:43,1.217,1.217,1.215,1.215, 1484
03/09/2020,11:44,1.2165,1.217,1.2165,1.2165, 5073
03/09/2020,11:45,1.215,1.215,1.215,1.215, 1723
03/09/2020,11:46,1.2156,1.217,1.214,1.217, 4196
03/09/2020,11:47,1.2185,1.22,1.2185,1.22, 1477
03/09/2020,11:48,1.217,1.219,1.217,1.219, 3836
03/09/2020,11:49,1.217,1.217,1.216,1.2165, 7384
03/09/2020,11:50,1.218,1.2185,1.218,1.2185, 4565
03/09/2020,11:51,1.2175,1.2175,1.2165,1.2165, 2482
03/09/2020,11:52,1.216,1.22,1.216,1.22, 16612
03/09/2020,11:53,1.219,1.219,1.219,1.219, 5949
03/09/2020,11:54,1.218,1.218,1.217,1.2175, 11261
03/09/2020,11:55,1.2185,1.219,1.2185,1.2185, 5020
03/09/2020,11:55,1.2185,1.2185,1.2185,1.2185, 800
03/09/2020,11:57,1.2205,1.221,1.2205,1.221, 2769
03/09/2020,11:58,1.2195,1.2195,1.2195,1.2195, 1699
03/09/2020,11:58,1.2205,1.221,1.2205,1.221, 1688
03/09/2020,12:00,1.221,1.221,1.221,1.221, 3126
03/09/2020,12:02,1.22,1.22,1.2185,1.2185, 7063
03/09/2020,12:05,1.215,1.215,1.2125,1.2125, 7310
03/09/2020,12:06,1.2135,1.214,1.2135,1.214, 3667
03/09/2020,12:07,1.216,1.218,1.216,1.218, 6678
03/09/2020,12:08,1.2185,1.2185,1.217,1.217, 8072
03/09/2020,12:08,1.2164,1.2164,1.2164,1.2164, 1048
03/09/2020,12:11,1.2185,1.2185,1.2175,1.2175, 7545
03/09/2020,12:12,1.217,1.217,1.217,1.217, 1014
03/09/2020,12:13,1.2155,1.2185,1.2155,1.217, 31816
03/09/2020,12:14,1.217,1.217,1.217,1.217, 666
03/09/2020,12:18,1.2165,1.2185,1.2165,1.218, 10196
03/09/2020,12:19,1.2185,1.221,1.2185,1.221, 34878
03/09/2020,12:19,1.22,1.22,1.22,1.22, 496
03/09/2020,12:21,1.2205,1.2205,1.2175,1.2205, 5326
03/09/2020,12:22,1.216,1.216,1.216,1.216, 16
03/09/2020,12:23,1.215,1.2175,1.215,1.2167, 10160
03/09/2020,12:24,1.217,1.217,1.217,1.217, 2558
03/09/2020,12:25,1.2155,1.2155,1.2155,1.2155, 531
03/09/2020,12:26,1.2175,1.219,1.217,1.217, 1711
03/09/2020,12:27,1.215,1.2165,1.215,1.2155, 14813
03/09/2020,12:28,1.2165,1.2165,1.216,1.216, 1163
03/09/2020,12:30,1.2155,1.2155,1.2115,1.2115, 15423
03/09/2020,12:31,1.213,1.213,1.2115,1.2115, 15826
03/09/2020,12:32,1.2115,1.2115,1.2095,1.211, 17601
03/09/2020,12:33,1.211,1.211,1.21,1.2105, 34066
03/09/2020,12:34,1.21,1.21,1.207,1.207, 5575
03/09/2020,12:37,1.209,1.209,1.207,1.207, 9801
03/09/2020,12:38,1.2085,1.2085,1.206,1.2075, 19858
03/09/2020,12:39,1.2065,1.2065,1.206,1.206, 2096
03/09/2020,12:40,1.2055,1.2065,1.2055,1.2065, 6038
03/09/2020,12:41,1.2045,1.2045,1.2045,1.2045, 1093
03/09/2020,12:43,1.206,1.2075,1.205,1.2065, 10302
03/09/2020,12:44,1.205,1.2065,1.205,1.205, 5716
03/09/2020,12:45,1.2065,1.2065,1.204,1.204, 9542
03/09/2020,12:46,1.204,1.204,1.204,1.204, 1009
03/09/2020,12:47,1.206,1.206,1.206,1.206, 2107
03/09/2020,12:48,1.207,1.207,1.207,1.207, 899
03/09/2020,12:49,1.2055,1.2075,1.2055,1.2075, 21684
03/09/2020,12:50,1.2075,1.2075,1.2075,1.2075, 244
03/09/2020,12:51,1.2055,1.2075,1.2055,1.2075, 399
03/09/2020,12:52,1.2055,1.207,1.2055,1.207, 1847
03/09/2020,12:53,1.205,1.205,1.2015,1.2015, 2992
03/09/2020,12:55,1.2,1.2,1.2,1.2, 3
03/09/2020,12:56,1.1995,1.1995,1.1985,1.1995, 3886
03/09/2020,12:57,1.199,1.199,1.1965,1.1965, 7252
03/09/2020,12:58,1.196,1.1965,1.1955,1.196, 6101
03/09/2020,12:59,1.197,1.1985,1.197,1.1985, 3762
03/09/2020,13:00,1.1975,1.1985,1.197,1.1975, 5097
03/09/2020,13:00,1.199,1.1995,1.199,1.1995, 2817
03/09/2020,13:03,1.2,1.2,1.1975,1.2, 51638
03/09/2020,13:04,1.2,1.2,1.198,1.198, 65970
03/09/2020,13:05,1.198,1.198,1.1965,1.1965, 2306
03/09/2020,13:06,1.1955,1.196,1.195,1.196, 15565
03/09/2020,13:07,1.194,1.196,1.194,1.195, 9543
03/09/2020,13:08,1.1945,1.1945,1.194,1.194, 2378
03/09/2020,13:09,1.194,1.1965,1.194,1.1965, 2048
03/09/2020,13:10,1.197,1.197,1.197,1.197, 611
03/09/2020,13:13,1.1963,1.1963,1.1963,1.1963, 2
03/09/2020,13:14,1.1955,1.1955,1.195,1.195, 41564
03/09/2020,13:14,1.1935,1.1935,1.1935,1.1935, 3676
03/09/2020,13:16,1.1925,1.1925,1.1925,1.1925, 644
03/09/2020,13:17,1.1915,1.195,1.1915,1.1944, 8477
03/09/2020,13:19,1.1935,1.1935,1.1935,1.1935, 559
03/09/2020,13:20,1.1944,1.1945,1.1925,1.1925, 8229
03/09/2020,13:21,1.1925,1.193,1.192,1.193, 4725
03/09/2020,13:22,1.1945,1.1965,1.1945,1.196, 40230
03/09/2020,13:23,1.1965,1.1965,1.195,1.1955, 8210
03/09/2020,13:24,1.195,1.195,1.1924,1.1924, 12389
03/09/2020,13:25,1.1925,1.1945,1.1925,1.1945, 4990
03/09/2020,13:26,1.1959,1.1975,1.195,1.195, 4958
03/09/2020,13:28,1.193,1.193,1.1925,1.1925, 3426
03/09/2020,13:29,1.194,1.195,1.1935,1.1945, 5110
03/09/2020,13:29,1.1935,1.1939,1.1935,1.1939, 5663
03/09/2020,13:30,1.194,1.195,1.194,1.1945, 4142
03/09/2020,13:33,1.194,1.194,1.1935,1.1935, 6325
03/09/2020,13:34,1.1934,1.1934,1.1934,1.1934, 2243
03/09/2020,13:35,1.1935,1.1935,1.1935,1.1935, 3351
03/09/2020,13:36,1.192,1.192,1.188,1.188, 12977
03/09/2020,13:37,1.1875,1.1875,1.1875,1.1875, 82
03/09/2020,13:38,1.1855,1.1855,1.1835,1.1845, 10921
03/09/2020,13:39,1.184,1.184,1.184,1.184, 3720
03/09/2020,13:41,1.183,1.1839,1.183,1.1839, 933
03/09/2020,13:42,1.184,1.1865,1.1825,1.1825, 103396
03/09/2020,13:43,1.1815,1.185,1.1815,1.184, 5376
03/09/2020,13:46,1.183,1.183,1.182,1.182, 1898
03/09/2020,13:47,1.1805,1.1805,1.1805,1.1805, 1837
03/09/2020,13:48,1.1825,1.183,1.1825,1.183, 2559
03/09/2020,13:49,1.1826,1.1826,1.1826,1.1826, 1826
03/09/2020,13:50,1.185,1.1855,1.1845,1.185, 12697
03/09/2020,13:51,1.1855,1.1855,1.184,1.185, 4755
03/09/2020,13:53,1.184,1.185,1.184,1.1845, 6787
03/09/2020,13:54,1.184,1.184,1.1821,1.1821, 4111
03/09/2020,13:55,1.1815,1.1815,1.1805,1.1805, 3878
03/09/2020,13:56,1.18,1.18,1.18,1.18, 3878
03/09/2020,13:57,1.18,1.18,1.18,1.18, 1002
03/09/2020,13:58,1.179,1.179,1.179,1.179, 1123
03/09/2020,13:59,1.1785,1.179,1.1775,1.1775, 8350
03/09/2020,14:00,1.177,1.177,1.176,1.176, 6360
03/09/2020,14:01,1.1755,1.1765,1.1755,1.1755, 15629
03/09/2020,14:02,1.1745,1.1755,1.173,1.1755, 15703
03/09/2020,14:03,1.1755,1.1755,1.1735,1.1748, 3055
03/09/2020,14:04,1.1725,1.1725,1.1715,1.1725, 2236
03/09/2020,14:05,1.1705,1.172,1.1705,1.1705, 1328
03/09/2020,14:06,1.1715,1.1725,1.1715,1.172, 12150
03/09/2020,14:07,1.173,1.1755,1.173,1.1755, 383
03/09/2020,14:08,1.176,1.176,1.1755,1.1755, 2448
03/09/2020,14:09,1.1755,1.1765,1.1755,1.1765, 9
03/09/2020,14:10,1.176,1.176,1.176,1.176, 1283
03/09/2020,14:11,1.175,1.175,1.173,1.173, 9144
03/09/2020,14:12,1.1725,1.1735,1.1725,1.1735, 14406
03/09/2020,14:13,1.172,1.172,1.169,1.169, 87061
03/09/2020,14:14,1.169,1.1715,1.169,1.1715, 28078
03/09/2020,14:14,1.171,1.171,1.171,1.171, 2922
03/09/2020,14:16,1.173,1.173,1.173,1.173, 1984
03/09/2020,14:17,1.171,1.1715,1.1685,1.1685, 3951
03/09/2020,14:18,1.1684,1.1715,1.1684,1.171, 9728
03/09/2020,14:19,1.1706,1.171,1.1695,1.171, 25056
03/09/2020,14:20,1.171,1.171,1.169,1.169, 760
03/09/2020,14:21,1.17,1.1705,1.169,1.1695, 20406
03/09/2020,14:22,1.1695,1.17,1.1695,1.17, 3445
03/09/2020,14:23,1.171,1.171,1.1695,1.1695, 4024
03/09/2020,14:24,1.1685,1.1685,1.1685,1.1685, 479
03/09/2020,14:25,1.167,1.1685,1.167,1.1685, 8945
03/09/2020,14:26,1.1685,1.1685,1.1655,1.1667, 3898
03/09/2020,14:27,1.1665,1.1665,1.166,1.1665, 5506
03/09/2020,14:27,1.1665,1.1665,1.1665,1.1665, 2261
03/09/2020,14:29,1.165,1.166,1.1645,1.1645, 7886
03/09/2020,14:30,1.1625,1.1625,1.1625,1.1625, 600
03/09/2020,14:31,1.162,1.162,1.1585,1.159, 1851
03/09/2020,14:31,1.159,1.162,1.159,1.162, 11813
03/09/2020,14:33,1.1605,1.162,1.1595,1.162, 10127
03/09/2020,14:34,1.161,1.163,1.1605,1.163, 11871
03/09/2020,14:35,1.164,1.1645,1.162,1.162, 7112
03/09/2020,14:36,1.162,1.162,1.1585,1.1585, 5731
03/09/2020,14:37,1.158,1.159,1.1555,1.1585, 39410
03/09/2020,14:38,1.1585,1.1595,1.1585,1.159, 4976
03/09/2020,14:39,1.159,1.159,1.1565,1.1565, 7796
03/09/2020,14:40,1.1555,1.1585,1.1555,1.1565, 13389
03/09/2020,14:40,1.158,1.1585,1.158,1.1585, 2132
03/09/2020,14:42,1.1595,1.16,1.159,1.16, 2940
03/09/2020,14:43,1.1605,1.1625,1.1605,1.1615, 2861
03/09/2020,14:43,1.16,1.162,1.16,1.162, 2584
03/09/2020,14:45,1.161,1.1615,1.161,1.1615, 5212
03/09/2020,14:46,1.1595,1.1615,1.1595,1.1615, 3609
03/09/2020,14:47,1.162,1.162,1.162,1.162, 9024
03/09/2020,14:48,1.162,1.1635,1.161,1.161, 4554
03/09/2020,14:49,1.1605,1.1635,1.1605,1.1625, 12596
03/09/2020,14:50,1.1625,1.1625,1.1625,1.1625, 2432
03/09/2020,14:51,1.1625,1.164,1.1605,1.164, 13396
03/09/2020,14:53,1.167,1.1675,1.1668,1.1668, 6250
03/09/2020,14:54,1.1685,1.169,1.1685,1.169, 552
03/09/2020,14:55,1.1685,1.17,1.1685,1.17, 16398
03/09/2020,14:59,1.1735,1.1735,1.1735,1.1735, 225
03/09/2020,15:00,1.175,1.175,1.175,1.175, 1207
03/09/2020,15:01,1.177,1.177,1.177,1.177, 1512
03/09/2020,15:02,1.1765,1.1765,1.1765,1.1765, 2744
03/09/2020,15:03,1.176,1.1765,1.176,1.1765, 2219
03/09/2020,15:04,1.1765,1.1775,1.1765,1.1775, 3240
03/09/2020,15:04,1.1785,1.1785,1.1785,1.1785, 3364
03/09/2020,15:05,1.1765,1.1772,1.1765,1.1772, 4680
03/09/2020,15:06,1.176,1.176,1.173,1.174, 20810
03/09/2020,15:06,1.174,1.174,1.174,1.174, 2096
03/09/2020,15:06,1.175,1.1765,1.1745,1.1765, 6882
03/09/2020,15:07,1.1795,1.1795,1.179,1.179, 2076
03/09/2020,15:08,1.18,1.18,1.1775,1.1785, 37404
03/09/2020,15:08,1.1785,1.1785,1.1785,1.1785, 2000
03/09/2020,15:09,1.1805,1.1805,1.178,1.178, 10348
03/09/2020,15:09,1.1795,1.1805,1.179,1.179, 9227
03/09/2020,15:10,1.179,1.179,1.179,1.179, 9113
03/09/2020,15:10,1.1805,1.1805,1.1805,1.1805, 2500
03/09/2020,15:11,1.1795,1.18,1.1795,1.1795, 5696
03/09/2020,15:12,1.179,1.1825,1.179,1.182, 6623
03/09/2020,15:15,1.182,1.1835,1.181,1.181, 6256
