01/02/2020,15:31,133.97,133.97,133.97,133.97, 12935
01/02/2020,15:32,133.88,133.97,133.88,133.97, 389
01/02/2020,15:34,133.61,134,133.61,134, 2631
01/02/2020,15:36,134.08,134.16,133.92,134.16, 900
01/02/2020,15:36,134.05,134.05,134.04,134.04, 200
01/02/2020,15:37,133.94,134.01,133.91,133.91, 500
01/02/2020,15:38,133.8,133.98,133.8,133.98, 200
01/02/2020,15:40,133.83,133.83,133.73,133.73, 300
01/02/2020,15:40,133.65,133.68,133.65,133.68, 300
01/02/2020,15:41,133.82,133.84,133.82,133.84, 200
01/02/2020,15:43,133.73,133.73,133.55,133.55, 300
01/02/2020,15:43,133.54,133.54,133.44,133.44, 200
01/02/2020,15:45,133.45,133.45,133.45,133.45, 100
01/02/2020,15:46,133.47,133.53,133.47,133.53, 225
01/02/2020,15:47,133.61,133.64,133.58,133.6, 611
01/02/2020,15:48,133.7,133.73,133.67,133.67, 400
01/02/2020,15:49,133.71,133.71,133.71,133.71, 400
01/02/2020,15:49,133.79,133.79,133.76,133.76, 250
01/02/2020,15:51,133.73,133.79,133.69,133.69, 1505
01/02/2020,15:52,133.7,133.71,133.7,133.71, 1700
01/02/2020,15:53,133.71,133.76,133.64,133.64, 300
01/02/2020,15:54,133.65,133.65,133.65,133.65, 100
01/02/2020,15:54,133.61,133.61,133.61,133.61, 100
01/02/2020,15:57,133.5,133.53,133.46,133.46, 400
01/02/2020,15:58,133.41,133.5,133.41,133.5, 200
01/02/2020,15:58,133.44,133.44,133.44,133.44, 100
01/02/2020,15:59,133.38,133.38,133.38,133.38, 100
01/02/2020,16:01,133.29,133.29,133.22,133.22, 300
01/02/2020,16:04,133,133,133,133, 300
01/02/2020,16:05,133,133.07,133,133.07, 200
01/02/2020,16:07,133,133,132.99,132.99, 1250
01/02/2020,16:08,133.01,133.07,133.01,133.05, 705
01/02/2020,16:09,133.08,133.08,133.08,133.08, 100
01/02/2020,16:09,133.03,133.05,133.03,133.05, 720
01/02/2020,16:13,132.89,132.89,132.88,132.88, 200
01/02/2020,16:14,132.92,132.92,132.89,132.89, 906
01/02/2020,16:15,132.74,132.79,132.72,132.78, 800
01/02/2020,16:16,132.66,132.7,132.64,132.64, 600
01/02/2020,16:16,132.58,132.58,132.56,132.56, 500
01/02/2020,16:18,132.49,132.52,132.33,132.34, 7462
01/02/2020,16:19,132.38,132.44,132.34,132.41, 4977
01/02/2020,16:20,132.43,132.61,132.42,132.61, 1400
01/02/2020,16:20,132.61,132.61,132.57,132.57, 300
01/02/2020,16:22,132.58,132.59,132.57,132.57, 920
01/02/2020,16:23,132.62,132.66,132.59,132.59, 1818
01/02/2020,16:24,132.59,132.59,132.43,132.43, 600
01/02/2020,16:25,132.44,132.47,132.41,132.41, 1501
01/02/2020,16:26,132.39,132.48,132.32,132.32, 3381
01/02/2020,16:27,132.31,132.35,132.31,132.32, 500
01/02/2020,16:28,132.3,132.33,132.3,132.31, 500
01/02/2020,16:29,132.32,132.32,132.26,132.28, 1249
01/02/2020,16:30,132.23,132.25,132.2,132.21, 1491
01/02/2020,16:31,132.21,132.21,132.11,132.12, 1850
01/02/2020,16:32,132.14,132.16,132.1,132.11, 1814
01/02/2020,16:33,132.15,132.22,132.15,132.2, 2827
01/02/2020,16:34,132.2,132.26,132.15,132.15, 2100
01/02/2020,16:35,132.18,132.22,132.15,132.15, 1600
01/02/2020,16:36,132.19,132.23,132.19,132.21, 900
01/02/2020,16:37,132.25,132.25,132.2,132.22, 1020
01/02/2020,16:38,132.27,132.28,132.22,132.24, 1000
01/02/2020,16:39,132.25,132.28,132.24,132.26, 1516
01/02/2020,16:40,132.3,132.3,132.19,132.19, 900
01/02/2020,16:40,132.22,132.26,132.22,132.26, 500
01/02/2020,16:42,132.22,132.28,132.22,132.28, 1680
01/02/2020,16:43,132.36,132.39,132.36,132.36, 300
01/02/2020,16:44,132.39,132.42,132.39,132.42, 200
01/02/2020,16:44,132.38,132.38,132.38,132.38, 740
01/02/2020,16:46,132.41,132.41,132.37,132.37, 600
01/02/2020,16:49,132.37,132.37,132.19,132.19, 935
01/02/2020,16:49,132.17,132.2,132.12,132.2, 1400
01/02/2020,16:50,132.15,132.15,132.15,132.15, 200
01/02/2020,16:52,132.14,132.3,132.14,132.26, 2659
01/02/2020,16:53,132.31,132.33,132.29,132.29, 900
01/02/2020,16:53,132.31,132.31,132.31,132.31, 100
01/02/2020,16:55,132.24,132.24,132.14,132.14, 1242
01/02/2020,16:56,132.19,132.28,132.19,132.28, 823
01/02/2020,16:57,132.31,132.31,132.26,132.26, 338
01/02/2020,16:58,132.29,132.34,132.27,132.31, 919
01/02/2020,16:59,132.34,132.34,132.31,132.31, 620
01/02/2020,17:00,132.37,132.41,132.35,132.41, 800
01/02/2020,17:01,132.41,132.41,132.41,132.41, 100
01/02/2020,17:04,132.38,132.39,132.33,132.33, 4802
01/02/2020,17:05,132.34,132.35,132.27,132.3, 800
01/02/2020,17:06,132.27,132.3,132.23,132.23, 1200
01/02/2020,17:07,132.23,132.24,132.17,132.2, 1861
01/02/2020,17:08,132.23,132.26,132.23,132.23, 892
01/02/2020,17:09,132.26,132.27,132.19,132.19, 300
01/02/2020,17:11,132.2,132.2,132.2,132.2, 100
01/02/2020,17:12,132.21,132.21,132.18,132.18, 200
01/02/2020,17:13,132.18,132.28,132.18,132.22, 1189
01/02/2020,17:14,132.2,132.2,132.06,132.06, 600
01/02/2020,17:15,132.13,132.16,132.13,132.14, 1200
01/02/2020,17:16,132.16,132.16,132.13,132.13, 301
01/02/2020,17:17,132.08,132.08,132.08,132.08, 100
01/02/2020,17:18,132.08,132.08,132.04,132.04, 503
01/02/2020,17:19,132,132,131.97,131.97, 620
01/02/2020,17:20,131.98,132.01,131.96,131.99, 3221
01/02/2020,17:21,132.03,132.12,132.03,132.1, 5272
01/02/2020,17:22,132.11,132.15,132.11,132.13, 602
01/02/2020,17:23,132.14,132.14,132.11,132.11, 564
01/02/2020,17:24,132.16,132.18,132.16,132.18, 1000
01/02/2020,17:25,132.16,132.17,132.16,132.16, 350
01/02/2020,17:26,132.17,132.29,132.17,132.26, 3489
01/02/2020,17:27,132.29,132.31,132.25,132.25, 2131
01/02/2020,17:28,132.26,132.26,132.26,132.26, 100
01/02/2020,17:29,132.28,132.33,132.28,132.31, 2090
01/02/2020,17:30,132.3,132.3,132.24,132.24, 709
01/02/2020,17:31,132.25,132.25,132.25,132.25, 100
01/02/2020,17:32,132.24,132.25,132.13,132.13, 1214
01/02/2020,17:33,132.15,132.21,132.15,132.18, 1858
01/02/2020,17:34,132.14,132.2,132.14,132.17, 800
01/02/2020,17:35,132.11,132.11,132.1,132.1, 1200
01/02/2020,17:36,132.04,132.05,131.96,131.96, 2041
01/02/2020,17:37,131.96,132,131.96,131.97, 2778
01/02/2020,17:38,131.96,131.96,131.9,131.92, 5700
01/02/2020,17:39,131.92,131.95,131.92,131.94, 1000
01/02/2020,17:40,131.92,131.92,131.92,131.92, 500
01/02/2020,17:41,131.92,131.96,131.91,131.91, 6797
01/02/2020,17:42,131.89,131.93,131.82,131.82, 900
01/02/2020,17:42,131.88,131.88,131.84,131.84, 600
01/02/2020,17:44,131.87,131.91,131.86,131.87, 2399
01/02/2020,17:45,131.9,131.9,131.9,131.9, 100
01/02/2020,17:46,131.94,131.94,131.91,131.92, 1558
01/02/2020,17:47,131.9,131.9,131.85,131.85, 300
01/02/2020,17:48,131.82,131.82,131.81,131.81, 285
01/02/2020,17:48,131.78,131.78,131.77,131.77, 300
01/02/2020,17:50,131.8,131.81,131.79,131.81, 1621
01/02/2020,17:51,131.79,131.86,131.79,131.8, 2047
01/02/2020,17:52,131.79,131.84,131.76,131.81, 4254
01/02/2020,17:53,131.83,131.89,131.8,131.84, 1117
01/02/2020,17:54,131.83,131.87,131.83,131.87, 621
01/02/2020,17:55,131.9,131.9,131.9,131.9, 100
01/02/2020,17:56,131.89,131.89,131.83,131.83, 844
01/02/2020,17:57,131.83,131.86,131.82,131.84, 1445
01/02/2020,17:58,131.86,131.88,131.86,131.88, 1104
01/02/2020,17:59,131.93,131.93,131.91,131.91, 500
01/02/2020,18:00,131.92,131.92,131.92,131.92, 100
01/02/2020,18:01,131.92,131.95,131.92,131.92, 1000
01/02/2020,18:01,131.89,131.89,131.89,131.89, 100
01/02/2020,18:03,131.91,131.91,131.84,131.85, 1539
01/02/2020,18:04,131.88,131.95,131.88,131.95, 798
01/02/2020,18:05,131.94,132,131.92,131.98, 6402
01/02/2020,18:06,131.98,131.98,131.98,131.98, 500
01/02/2020,18:07,131.97,131.98,131.92,131.95, 2147
01/02/2020,18:08,131.94,131.98,131.94,131.96, 1321
01/02/2020,18:09,131.96,131.99,131.96,131.99, 432
01/02/2020,18:11,132.01,132.06,131.99,132.06, 2320
01/02/2020,18:12,132.05,132.05,132.05,132.05, 100
01/02/2020,18:15,132.03,132.03,132,132.01, 2625
01/02/2020,18:16,132.02,132.07,132.02,132.07, 7098
01/02/2020,18:17,132.07,132.07,132.07,132.07, 100
01/02/2020,18:18,132.07,132.15,132.07,132.15, 1300
01/02/2020,18:19,132.17,132.17,132.17,132.17, 249
01/02/2020,18:20,132.18,132.18,132.18,132.18, 1716
01/02/2020,18:21,132.17,132.17,132.11,132.11, 1686
01/02/2020,18:23,132.13,132.15,132.13,132.13, 2096
01/02/2020,18:24,132.13,132.13,132.13,132.13, 407
01/02/2020,18:25,132.14,132.14,132.13,132.13, 700
01/02/2020,18:27,132.13,132.15,132.13,132.14, 1457
01/02/2020,18:28,132.14,132.14,132.14,132.14, 100
01/02/2020,18:29,132.15,132.17,132.15,132.17, 1083
01/02/2020,18:31,132.14,132.15,132.14,132.15, 710
01/02/2020,18:32,132.16,132.19,132.16,132.18, 1344
01/02/2020,18:33,132.19,132.19,132.18,132.18, 300
01/02/2020,18:34,132.18,132.18,132.18,132.18, 100
01/02/2020,18:35,132.19,132.23,132.19,132.22, 2307
01/02/2020,18:36,132.23,132.25,132.23,132.25, 400
01/02/2020,18:37,132.23,132.24,132.22,132.24, 300
01/02/2020,18:38,132.23,132.23,132.19,132.21, 2256
01/02/2020,18:39,132.21,132.26,132.21,132.23, 3982
01/02/2020,18:39,132.23,132.23,132.23,132.23, 100
01/02/2020,18:41,132.22,132.23,132.21,132.22, 1284
01/02/2020,18:42,132.21,132.24,132.21,132.24, 986
01/02/2020,18:43,132.2,132.2,132.2,132.2, 100
01/02/2020,18:44,132.22,132.22,132.14,132.14, 1502
01/02/2020,18:46,132.13,132.17,132.13,132.17, 1449
01/02/2020,18:47,132.16,132.16,132.13,132.13, 700
01/02/2020,18:48,132.16,132.16,132.13,132.13, 458
01/02/2020,18:49,132.13,132.13,132.05,132.05, 994
01/02/2020,18:50,132.04,132.06,132.04,132.06, 400
01/02/2020,18:51,132.04,132.04,132.04,132.04, 100
01/02/2020,18:53,132.05,132.08,132.04,132.04, 1605
01/02/2020,18:54,132.04,132.04,132.04,132.04, 100
01/02/2020,18:56,132.02,132.02,132,132, 300
01/02/2020,18:57,131.99,132,131.98,131.98, 400
01/02/2020,18:58,131.98,131.98,131.97,131.97, 341
01/02/2020,18:59,131.94,131.94,131.92,131.92, 500
01/02/2020,19:00,131.87,131.88,131.87,131.87, 400
01/02/2020,19:01,131.89,131.89,131.86,131.86, 1068
01/02/2020,19:02,131.86,131.86,131.83,131.83, 1935
01/02/2020,19:03,131.85,131.85,131.83,131.83, 400
01/02/2020,19:03,131.82,131.83,131.82,131.83, 201
01/02/2020,19:05,131.81,131.81,131.77,131.77, 700
01/02/2020,19:06,131.79,131.79,131.77,131.77, 600
01/02/2020,19:07,131.77,131.77,131.75,131.75, 200
01/02/2020,19:08,131.71,131.73,131.68,131.7, 1372
01/02/2020,19:09,131.71,131.71,131.71,131.71, 110
01/02/2020,19:10,131.69,131.69,131.69,131.69, 100
01/02/2020,19:11,131.68,131.68,131.64,131.64, 675
01/02/2020,19:12,131.67,131.68,131.65,131.65, 900
01/02/2020,19:13,131.65,131.65,131.63,131.63, 603
01/02/2020,19:13,131.64,131.65,131.64,131.65, 300
01/02/2020,19:16,131.61,131.62,131.6,131.62, 408
01/02/2020,19:17,131.6,131.63,131.55,131.55, 2795
01/02/2020,19:18,131.54,131.6,131.54,131.6, 1597
01/02/2020,19:19,131.64,131.64,131.62,131.62, 700
01/02/2020,19:20,131.6,131.63,131.6,131.63, 400
01/02/2020,19:20,131.62,131.62,131.62,131.62, 100
01/02/2020,19:21,131.62,131.65,131.62,131.65, 400
01/02/2020,19:22,131.67,131.68,131.67,131.68, 600
01/02/2020,19:24,131.71,131.72,131.71,131.72, 823
01/02/2020,19:24,131.7,131.7,131.68,131.68, 400
01/02/2020,19:25,131.71,131.71,131.7,131.7, 648
01/02/2020,19:27,131.69,131.69,131.65,131.65, 300
01/02/2020,19:28,131.64,131.67,131.64,131.67, 500
01/02/2020,19:29,131.65,131.65,131.61,131.62, 823
01/02/2020,19:30,131.59,131.63,131.59,131.63, 900
01/02/2020,19:31,131.6,131.64,131.6,131.64, 648
01/02/2020,19:31,131.62,131.62,131.62,131.62, 200
01/02/2020,19:33,131.61,131.61,131.61,131.61, 1005
01/02/2020,19:34,131.59,131.59,131.57,131.58, 739
01/02/2020,19:35,131.55,131.57,131.55,131.57, 600
01/02/2020,19:36,131.57,131.59,131.55,131.59, 1440
01/02/2020,19:37,131.58,131.58,131.55,131.58, 3587
01/02/2020,19:38,131.55,131.6,131.55,131.6, 800
01/02/2020,19:39,131.59,131.59,131.55,131.57, 600
01/02/2020,19:40,131.56,131.65,131.56,131.65, 1873
01/02/2020,19:40,131.61,131.61,131.61,131.61, 100
01/02/2020,19:42,131.61,131.61,131.59,131.59, 200
01/02/2020,19:43,131.59,131.63,131.59,131.63, 950
01/02/2020,19:43,131.61,131.61,131.61,131.61, 100
01/02/2020,19:46,131.62,131.65,131.61,131.65, 2500
01/02/2020,19:47,131.67,131.68,131.65,131.68, 981
01/02/2020,19:48,131.69,131.7,131.69,131.7, 600
01/02/2020,19:49,131.71,131.73,131.71,131.73, 1138
01/02/2020,19:49,131.71,131.71,131.71,131.71, 100
01/02/2020,19:51,131.71,131.71,131.7,131.71, 400
01/02/2020,19:52,131.7,131.7,131.68,131.68, 1592
01/02/2020,19:53,131.68,131.68,131.66,131.66, 505
01/02/2020,19:54,131.6,131.6,131.55,131.57, 1227
01/02/2020,19:55,131.55,131.58,131.54,131.57, 2473
01/02/2020,19:56,131.53,131.56,131.51,131.56, 7100
01/02/2020,19:57,131.56,131.56,131.54,131.54, 2235
01/02/2020,19:58,131.53,131.57,131.52,131.57, 8324
01/02/2020,19:58,131.55,131.55,131.55,131.55, 100
01/02/2020,19:59,131.54,131.54,131.54,131.54, 100
01/02/2020,20:01,131.59,131.61,131.57,131.59, 2641
01/02/2020,20:02,131.59,131.62,131.59,131.62, 1588
01/02/2020,20:03,131.62,131.68,131.62,131.68, 875
01/02/2020,20:04,131.68,131.71,131.68,131.71, 439
01/02/2020,20:05,131.71,131.74,131.71,131.72, 5244
01/02/2020,20:06,131.74,131.81,131.73,131.81, 1910
01/02/2020,20:07,131.8,131.8,131.78,131.78, 296
01/02/2020,20:08,131.78,131.83,131.78,131.79, 5368
01/02/2020,20:09,131.8,131.8,131.8,131.8, 100
01/02/2020,20:10,131.81,131.9,131.81,131.86, 4752
01/02/2020,20:11,131.87,131.89,131.86,131.89, 1807
01/02/2020,20:12,131.89,131.98,131.89,131.98, 10037
01/02/2020,20:13,131.99,132.01,131.96,131.99, 9843
01/02/2020,20:14,131.98,132.07,131.97,132.06, 6236
01/02/2020,20:15,132.05,132.06,132.04,132.06, 1817
01/02/2020,20:16,132.06,132.11,132.06,132.09, 2375
01/02/2020,20:17,132.09,132.14,132.08,132.12, 8660
01/02/2020,20:18,132.12,132.15,132.08,132.15, 15937
01/02/2020,20:19,132.15,132.18,132.1,132.17, 13979
01/02/2020,20:20,132.2,132.2,132.14,132.19, 7491
01/02/2020,20:21,132.2,132.2,132.15,132.19, 2953
01/02/2020,20:22,132.19,132.25,132.19,132.24, 3552
01/02/2020,20:23,132.25,132.32,132.23,132.32, 2900
01/02/2020,20:24,132.32,132.33,132.29,132.31, 2778
01/02/2020,20:25,132.31,132.31,132.16,132.19, 2796
01/02/2020,20:25,132.19,132.2,132.19,132.19, 900
01/02/2020,20:26,132.19,132.19,132.19,132.19, 100
01/02/2020,20:28,132.17,132.19,132.15,132.16, 1733
01/02/2020,20:29,132.14,132.17,132.13,132.17, 1734
01/02/2020,20:30,132.14,132.17,132.14,132.14, 1898
01/02/2020,20:31,132.12,132.12,132.03,132.04, 2600
01/02/2020,20:32,132.01,132.01,131.85,131.89, 2478
01/02/2020,20:33,131.89,131.89,131.85,131.88, 1597
01/02/2020,20:34,131.89,131.89,131.81,131.84, 1600
01/02/2020,20:35,131.81,131.83,131.81,131.82, 934
01/02/2020,20:35,131.82,131.85,131.79,131.79, 1100
01/02/2020,20:37,131.8,131.86,131.76,131.81, 3183
01/02/2020,20:38,131.83,131.83,131.78,131.78, 1500
01/02/2020,20:39,131.78,131.79,131.76,131.76, 400
01/02/2020,20:39,131.79,131.79,131.79,131.79, 300
01/02/2020,20:41,131.77,131.77,131.73,131.73, 500
01/02/2020,20:41,131.74,131.76,131.73,131.75, 1300
01/02/2020,20:42,131.73,131.78,131.73,131.78, 1435
01/02/2020,20:44,131.79,131.85,131.79,131.82, 4160
01/02/2020,20:44,131.81,131.81,131.77,131.81, 754
01/02/2020,20:46,131.83,131.84,131.79,131.81, 2105
01/02/2020,20:47,131.77,131.77,131.73,131.75, 1102
01/02/2020,20:47,131.74,131.74,131.74,131.74, 100
01/02/2020,20:49,131.76,131.76,131.76,131.76, 100
01/02/2020,20:50,131.75,131.76,131.74,131.75, 500
01/02/2020,20:51,131.74,131.74,131.71,131.71, 933
01/02/2020,20:52,131.71,131.76,131.71,131.75, 1062
01/02/2020,20:53,131.77,131.78,131.73,131.74, 1869
01/02/2020,20:53,131.73,131.73,131.73,131.73, 100
01/02/2020,20:55,131.74,131.74,131.69,131.69, 500
01/02/2020,20:55,131.7,131.7,131.66,131.66, 1788
01/02/2020,20:57,131.68,131.69,131.67,131.67, 1837
01/02/2020,20:58,131.65,131.65,131.65,131.65, 400
01/02/2020,20:59,131.65,131.65,131.58,131.58, 3844
01/02/2020,21:00,131.58,131.6,131.55,131.6, 2559
01/02/2020,21:00,131.59,131.59,131.56,131.57, 2497
01/02/2020,21:02,131.57,131.58,131.56,131.56, 2345
01/02/2020,21:03,131.56,131.57,131.54,131.56, 1500
01/02/2020,21:04,131.56,131.57,131.56,131.57, 3042
01/02/2020,21:05,131.57,131.57,131.53,131.53, 1954
01/02/2020,21:06,131.54,131.54,131.47,131.47, 2608
01/02/2020,21:07,131.45,131.45,131.42,131.45, 1880
01/02/2020,21:08,131.47,131.47,131.41,131.45, 1951
01/02/2020,21:09,131.42,131.42,131.39,131.39, 1065
01/02/2020,21:10,131.38,131.4,131.38,131.4, 1934
01/02/2020,21:11,131.4,131.4,131.38,131.39, 1276
01/02/2020,21:12,131.39,131.4,131.38,131.4, 2270
01/02/2020,21:13,131.43,131.45,131.43,131.44, 748
01/02/2020,21:14,131.42,131.43,131.35,131.37, 936
01/02/2020,21:15,131.37,131.45,131.37,131.45, 1990
01/02/2020,21:15,131.44,131.46,131.44,131.46, 500
01/02/2020,21:17,131.47,131.48,131.46,131.48, 900
01/02/2020,21:18,131.48,131.49,131.45,131.47, 1878
01/02/2020,21:18,131.5,131.5,131.49,131.5, 1381
01/02/2020,21:20,131.48,131.51,131.46,131.46, 2197
01/02/2020,21:21,131.47,131.49,131.45,131.45, 1699
01/02/2020,21:22,131.45,131.45,131.36,131.38, 2748
01/02/2020,21:23,131.37,131.38,131.35,131.38, 1928
01/02/2020,21:24,131.39,131.42,131.39,131.42, 1843
01/02/2020,21:25,131.42,131.45,131.4,131.45, 1000
01/02/2020,21:26,131.46,131.49,131.46,131.48, 844
01/02/2020,21:27,131.47,131.49,131.46,131.49, 1300
01/02/2020,21:28,131.5,131.51,131.48,131.48, 908
01/02/2020,21:29,131.48,131.5,131.48,131.5, 400
01/02/2020,21:30,131.49,131.5,131.46,131.46, 1503
01/02/2020,21:31,131.46,131.55,131.43,131.55, 2337
01/02/2020,21:32,131.55,131.56,131.47,131.54, 3216
01/02/2020,21:33,131.51,131.53,131.5,131.51, 1015
01/02/2020,21:34,131.51,131.51,131.48,131.51, 2905
01/02/2020,21:35,131.51,131.52,131.5,131.52, 1750
01/02/2020,21:36,131.52,131.58,131.5,131.56, 5291
01/02/2020,21:37,131.55,131.66,131.52,131.66, 7961
01/02/2020,21:38,131.65,131.67,131.64,131.64, 2850
01/02/2020,21:39,131.62,131.65,131.62,131.65, 700
01/02/2020,21:40,131.62,131.62,131.56,131.56, 1100
01/02/2020,21:41,131.52,131.57,131.51,131.52, 4097
01/02/2020,21:42,131.53,131.56,131.52,131.56, 3148
01/02/2020,21:43,131.55,131.61,131.55,131.61, 2286
01/02/2020,21:44,131.66,131.67,131.6,131.6, 2289
01/02/2020,21:45,131.61,131.68,131.61,131.68, 27908
01/02/2020,21:46,131.69,131.76,131.69,131.69, 2957
01/02/2020,21:47,131.69,131.78,131.69,131.78, 2867
01/02/2020,21:48,131.78,131.8,131.77,131.8, 1796
01/02/2020,21:49,131.79,131.79,131.74,131.74, 2993
01/02/2020,21:50,131.75,131.77,131.75,131.77, 1500
01/02/2020,21:51,131.77,131.81,131.75,131.77, 4901
01/02/2020,21:52,131.77,131.78,131.75,131.77, 4050
01/02/2020,21:53,131.75,131.8,131.75,131.8, 1816
01/02/2020,21:54,131.79,131.79,131.71,131.77, 6411
01/02/2020,21:55,131.76,131.86,131.75,131.85, 3201
01/02/2020,21:56,131.88,131.95,131.76,131.76, 7743
01/02/2020,21:57,131.76,131.82,131.74,131.81, 5264
01/02/2020,21:58,131.81,131.81,131.7,131.75, 11663
01/02/2020,21:59,131.74,131.76,131.64,131.72, 10600
01/02/2020,22:00,131.73,131.81,131.65,131.71, 28654
01/02/2020,22:01,131.69,131.7,131.54,131.62, 27528
01/02/2020,22:05,131.6,131.6,131.6,131.6, 304026
01/03/2020,15:31,130.05,130.05,130.05,130.05, 300
01/03/2020,15:31,130,130.39,129.86,130.07, 25791
01/03/2020,15:32,129.94,130.07,129.94,130.07, 1400
01/03/2020,15:33,129.81,129.86,129.79,129.86, 600
01/03/2020,15:36,130.04,130.04,129.97,129.97, 430
01/03/2020,15:36,129.95,129.96,129.94,129.94, 300
01/03/2020,15:37,130,130,129.88,129.88, 464
01/03/2020,15:38,129.83,129.84,129.83,129.84, 200
01/03/2020,15:39,129.9,129.9,129.9,129.9, 100
01/03/2020,15:40,130.01,130.01,129.97,129.99, 1600
01/03/2020,15:41,130.23,130.49,130.2,130.47, 2400
01/03/2020,15:42,130.38,130.38,130.32,130.32, 300
01/03/2020,15:43,130.22,130.29,130.22,130.29, 600
01/03/2020,15:44,130.26,130.26,130.26,130.26, 200
01/03/2020,15:46,130.34,130.4,130.24,130.39, 1036
01/03/2020,15:47,130.23,130.33,130.23,130.33, 500
01/03/2020,15:47,130.34,130.34,130.32,130.32, 500
01/03/2020,15:48,130.39,130.39,130.26,130.31, 599
01/03/2020,15:49,130.34,130.34,130.34,130.34, 200
01/03/2020,15:51,130.37,130.5,130.36,130.45, 2832
01/03/2020,15:52,130.44,130.67,130.44,130.57, 600
01/03/2020,15:54,130.62,130.62,130.62,130.62, 113
01/03/2020,15:56,130.57,130.61,130.55,130.55, 1150
01/03/2020,15:56,130.48,130.48,130.35,130.35, 320
01/03/2020,15:57,130.37,130.46,130.37,130.46, 408
01/03/2020,15:58,130.46,130.53,130.43,130.53, 813
01/03/2020,16:00,130.49,130.56,130.47,130.47, 327
01/03/2020,16:01,130.4,130.4,130.27,130.27, 200
01/03/2020,16:02,130.26,130.45,130.18,130.23, 1249
01/03/2020,16:02,130.26,130.53,130.24,130.45, 1015
01/03/2020,16:03,130.23,130.25,130.23,130.25, 450
01/03/2020,16:04,130.22,130.22,130.22,130.22, 100
01/03/2020,16:05,130.45,130.45,130.35,130.35, 1300
01/03/2020,16:07,130.35,130.43,130.35,130.43, 600
01/03/2020,16:08,130.38,130.42,130.38,130.42, 200
01/03/2020,16:09,130.47,130.47,130.41,130.45, 1305
01/03/2020,16:09,130.43,130.44,130.36,130.42, 23914
01/03/2020,16:10,130.45,130.56,130.42,130.56, 39680
01/03/2020,16:12,130.52,130.61,130.48,130.48, 3310
01/03/2020,16:12,130.5,130.69,130.49,130.69, 3445
01/03/2020,16:14,130.67,130.78,130.67,130.78, 700
01/03/2020,16:14,130.77,130.8,130.72,130.74, 721
01/03/2020,16:15,130.68,130.74,130.68,130.7, 414
01/03/2020,16:16,130.71,130.76,130.71,130.75, 2324
01/03/2020,16:17,130.79,130.85,130.74,130.74, 1921
01/03/2020,16:18,130.71,130.71,130.6,130.62, 460
01/03/2020,16:19,130.57,130.64,130.57,130.64, 500
01/03/2020,16:21,130.54,130.54,130.45,130.47, 1950
01/03/2020,16:22,130.48,130.53,130.48,130.53, 421
01/03/2020,16:22,130.43,130.43,130.43,130.43, 102
01/03/2020,16:24,130.3,130.33,130.28,130.33, 1700
01/03/2020,16:24,130.35,130.35,130.34,130.35, 300
01/03/2020,16:26,130.39,130.43,130.39,130.43, 710
01/03/2020,16:26,130.4,130.44,130.4,130.44, 401
01/03/2020,16:28,130.41,130.41,130.38,130.38, 700
01/03/2020,16:28,130.41,130.44,130.41,130.44, 500
01/03/2020,16:30,130.45,130.45,130.34,130.34, 500
01/03/2020,16:31,130.34,130.38,130.34,130.35, 1506
01/03/2020,16:32,130.38,130.45,130.38,130.44, 1400
01/03/2020,16:33,130.42,130.42,130.31,130.31, 600
01/03/2020,16:34,130.34,130.34,130.15,130.15, 11874
01/03/2020,16:34,130.14,130.18,130.13,130.13, 700
01/03/2020,16:35,130.11,130.11,130.06,130.06, 425
01/03/2020,16:37,130.08,130.13,130.04,130.04, 1446
01/03/2020,16:38,130.07,130.17,130.04,130.1, 2362
01/03/2020,16:38,130.14,130.14,130.11,130.11, 766
01/03/2020,16:40,130.14,130.18,130.02,130.12, 1426
01/03/2020,16:41,130.12,130.16,130.11,130.11, 600
01/03/2020,16:42,130.15,130.16,130.12,130.13, 1300
01/03/2020,16:43,130.13,130.16,130.09,130.13, 420
01/03/2020,16:44,130.17,130.2,130.08,130.08, 4720
01/03/2020,16:45,130.09,130.11,130.08,130.09, 900
01/03/2020,16:46,130.1,130.14,130.1,130.14, 637
01/03/2020,16:47,130.15,130.32,130.15,130.31, 1082
01/03/2020,16:48,130.3,130.3,130.2,130.25, 1693
01/03/2020,16:48,130.22,130.22,130.17,130.18, 717
01/03/2020,16:50,130.18,130.18,130.14,130.14, 400
01/03/2020,16:51,130.17,130.17,129.99,129.99, 1800
01/03/2020,16:52,129.95,129.96,129.95,129.96, 200
01/03/2020,16:52,129.86,129.86,129.86,129.86, 100
01/03/2020,16:53,129.89,129.95,129.89,129.95, 802
01/03/2020,16:55,129.95,129.95,129.86,129.86, 399
01/03/2020,16:56,129.88,129.9,129.84,129.84, 900
01/03/2020,16:57,129.83,129.95,129.83,129.91, 1713
01/03/2020,16:57,129.97,130.01,129.97,129.97, 500
01/03/2020,16:59,130.02,130.05,129.98,130.04, 1300
01/03/2020,17:00,130.04,130.12,130.04,130.12, 1900
01/03/2020,17:00,130.05,130.11,130.05,130.11, 600
01/03/2020,17:02,130.1,130.1,130.01,130.01, 8971
01/03/2020,17:03,130,130.08,130,130.08, 400
01/03/2020,17:03,130.08,130.08,130.08,130.08, 100
01/03/2020,17:04,130.07,130.08,130,130, 800
01/03/2020,17:06,130.02,130.1,130,130.1, 3612
01/03/2020,17:07,130.17,130.18,130.13,130.13, 3392
01/03/2020,17:08,130.11,130.21,130.11,130.16, 2662
01/03/2020,17:08,130.14,130.14,130.14,130.14, 100
01/03/2020,17:10,130.22,130.22,130.07,130.07, 1301
01/03/2020,17:11,130.05,130.09,130.05,130.05, 800
01/03/2020,17:12,130.01,130.03,129.95,129.95, 500
01/03/2020,17:13,129.97,130.03,129.95,130.03, 1151
01/03/2020,17:13,130.08,130.11,130.07,130.11, 800
01/03/2020,17:15,130.13,130.17,130.13,130.17, 600
01/03/2020,17:16,130.15,130.2,130.14,130.17, 1800
01/03/2020,17:17,130.17,130.26,130.07,130.26, 1100
01/03/2020,17:18,130.27,130.33,130.26,130.26, 1110
01/03/2020,17:19,130.25,130.26,130.17,130.26, 1100
01/03/2020,17:19,130.22,130.26,130.21,130.26, 634
01/03/2020,17:21,130.24,130.24,130.21,130.21, 400
01/03/2020,17:22,130.24,130.26,130.24,130.25, 1275
01/03/2020,17:23,130.24,130.25,130.19,130.24, 906
01/03/2020,17:24,130.22,130.22,130.19,130.19, 200
01/03/2020,17:26,130.15,130.19,130.15,130.19, 1040
01/03/2020,17:27,130.15,130.22,130.15,130.2, 901
01/03/2020,17:28,130.21,130.23,130.21,130.21, 762
01/03/2020,17:28,130.23,130.23,130.19,130.19, 1442
01/03/2020,17:29,130.24,130.25,130.24,130.25, 810
01/03/2020,17:31,130.22,130.29,130.22,130.25, 800
01/03/2020,17:32,130.29,130.31,130.28,130.3, 1100
01/03/2020,17:32,130.29,130.3,130.29,130.3, 200
01/03/2020,17:34,130.3,130.35,130.3,130.31, 1218
01/03/2020,17:35,130.33,130.33,130.24,130.31, 2486
01/03/2020,17:36,130.33,130.4,130.33,130.4, 600
01/03/2020,17:37,130.38,130.38,130.38,130.38, 100
01/03/2020,17:37,130.38,130.4,130.38,130.39, 500
01/03/2020,17:39,130.42,130.45,130.39,130.4, 1200
01/03/2020,17:40,130.39,130.39,130.35,130.38, 400
01/03/2020,17:41,130.37,130.37,130.37,130.37, 700
01/03/2020,17:42,130.37,130.4,130.37,130.4, 300
01/03/2020,17:43,130.36,130.36,130.32,130.32, 1119
01/03/2020,17:44,130.29,130.3,130.26,130.29, 1100
01/03/2020,17:45,130.31,130.39,130.28,130.39, 1530
01/03/2020,17:46,130.42,130.47,130.41,130.42, 1202
01/03/2020,17:47,130.41,130.45,130.41,130.43, 500
01/03/2020,17:48,130.42,130.42,130.37,130.37, 1652
01/03/2020,17:49,130.38,130.44,130.38,130.43, 9780
01/03/2020,17:50,130.43,130.45,130.41,130.41, 3041
01/03/2020,17:50,130.42,130.42,130.34,130.34, 600
01/03/2020,17:51,130.34,130.34,130.34,130.34, 400
01/03/2020,17:52,130.3,130.33,130.29,130.33, 701
01/03/2020,17:53,130.34,130.34,130.31,130.31, 318
01/03/2020,17:54,130.33,130.33,130.33,130.33, 100
01/03/2020,17:56,130.36,130.42,130.34,130.4, 1001
01/03/2020,17:57,130.4,130.44,130.33,130.4, 4828
01/03/2020,17:57,130.4,130.46,130.4,130.42, 2900
01/03/2020,17:59,130.42,130.42,130.4,130.4, 1127
01/03/2020,17:59,130.42,130.42,130.42,130.42, 100
01/03/2020,18:01,130.42,130.43,130.4,130.4, 300
01/03/2020,18:02,130.44,130.49,130.44,130.49, 954
01/03/2020,18:02,130.48,130.49,130.47,130.47, 400
01/03/2020,18:04,130.47,130.47,130.41,130.42, 1000
01/03/2020,18:05,130.42,130.42,130.4,130.4, 1350
01/03/2020,18:06,130.41,130.45,130.41,130.45, 2340
01/03/2020,18:07,130.47,130.49,130.43,130.49, 2950
01/03/2020,18:08,130.42,130.42,130.4,130.4, 2121
01/03/2020,18:09,130.4,130.43,130.38,130.41, 2210
01/03/2020,18:10,130.43,130.43,130.42,130.42, 800
01/03/2020,18:11,130.42,130.46,130.42,130.44, 700
01/03/2020,18:12,130.44,130.47,130.44,130.46, 697
01/03/2020,18:13,130.45,130.47,130.45,130.46, 1100
01/03/2020,18:14,130.42,130.42,130.4,130.4, 1601
01/03/2020,18:14,130.4,130.41,130.38,130.4, 1901
01/03/2020,18:16,130.42,130.42,130.38,130.41, 1272
01/03/2020,18:16,130.39,130.39,130.39,130.39, 100
01/03/2020,18:18,130.43,130.5,130.43,130.45, 5741
01/03/2020,18:19,130.43,130.45,130.39,130.45, 1083
01/03/2020,18:19,130.45,130.45,130.45,130.45, 100
01/03/2020,18:20,130.45,130.45,130.43,130.43, 893
01/03/2020,18:21,130.44,130.44,130.44,130.44, 100
01/03/2020,18:22,130.46,130.46,130.46,130.46, 100
01/03/2020,18:24,130.43,130.44,130.42,130.44, 500
01/03/2020,18:24,130.42,130.42,130.41,130.41, 300
01/03/2020,18:26,130.41,130.42,130.41,130.42, 650
01/03/2020,18:27,130.43,130.43,130.42,130.42, 300
01/03/2020,18:28,130.44,130.44,130.4,130.42, 1675
01/03/2020,18:29,130.4,130.4,130.39,130.39, 320
01/03/2020,18:31,130.35,130.35,130.31,130.32, 1398
01/03/2020,18:32,130.32,130.32,130.3,130.3, 300
01/03/2020,18:33,130.31,130.31,130.3,130.3, 634
01/03/2020,18:34,130.32,130.38,130.31,130.35, 1874
01/03/2020,18:35,130.34,130.34,130.33,130.34, 300
01/03/2020,18:36,130.35,130.35,130.29,130.32, 619
01/03/2020,18:37,130.32,130.35,130.31,130.35, 1340
01/03/2020,18:37,130.34,130.34,130.3,130.32, 400
01/03/2020,18:38,130.32,130.33,130.32,130.32, 300
01/03/2020,18:39,130.34,130.34,130.33,130.33, 208
01/03/2020,18:40,130.31,130.33,130.31,130.31, 440
01/03/2020,18:42,130.32,130.32,130.3,130.31, 600
01/03/2020,18:42,130.33,130.35,130.29,130.3, 3887
01/03/2020,18:44,130.29,130.35,130.29,130.32, 2438
01/03/2020,18:45,130.31,130.31,130.24,130.24, 2074
01/03/2020,18:46,130.26,130.32,130.26,130.32, 700
01/03/2020,18:46,130.32,130.33,130.3,130.33, 300
01/03/2020,18:47,130.33,130.49,130.33,130.49, 1302
01/03/2020,18:49,130.48,130.5,130.45,130.46, 645
01/03/2020,18:50,130.46,130.46,130.39,130.4, 1074
01/03/2020,18:50,130.35,130.36,130.35,130.36, 202
01/03/2020,18:52,130.38,130.38,130.37,130.37, 300
01/03/2020,18:53,130.4,130.4,130.33,130.33, 956
01/03/2020,18:53,130.3,130.31,130.3,130.31, 300
01/03/2020,18:54,130.31,130.31,130.31,130.31, 100
01/03/2020,18:56,130.3,130.3,130.28,130.29, 605
01/03/2020,18:57,130.26,130.3,130.26,130.3, 849
01/03/2020,18:58,130.33,130.33,130.29,130.29, 568
01/03/2020,18:59,130.3,130.3,130.26,130.27, 1078
01/03/2020,19:00,130.28,130.3,130.27,130.3, 700
01/03/2020,19:00,130.29,130.3,130.29,130.3, 536
01/03/2020,19:01,130.33,130.33,130.33,130.33, 200
01/03/2020,19:02,130.33,130.33,130.29,130.29, 820
01/03/2020,19:03,130.33,130.36,130.33,130.36, 724
01/03/2020,19:05,130.34,130.34,130.28,130.28, 835
01/03/2020,19:05,130.28,130.28,130.28,130.28, 100
01/03/2020,19:07,130.26,130.26,130.26,130.26, 300
01/03/2020,19:07,130.28,130.3,130.28,130.3, 803
01/03/2020,19:08,130.3,130.32,130.3,130.32, 800
01/03/2020,19:10,130.32,130.32,130.28,130.28, 763
01/03/2020,19:11,130.3,130.31,130.28,130.3, 698
01/03/2020,19:12,130.3,130.34,130.3,130.34, 620
01/03/2020,19:13,130.33,130.36,130.32,130.36, 1311
01/03/2020,19:13,130.35,130.36,130.35,130.35, 534
01/03/2020,19:15,130.35,130.35,130.32,130.32, 400
01/03/2020,19:16,130.32,130.33,130.31,130.33, 837
01/03/2020,19:17,130.33,130.33,130.29,130.29, 500
01/03/2020,19:18,130.3,130.3,130.27,130.29, 925
01/03/2020,19:19,130.29,130.29,130.27,130.27, 369
01/03/2020,19:20,130.26,130.3,130.26,130.29, 941
01/03/2020,19:21,130.29,130.29,130.29,130.29, 419
01/03/2020,19:22,130.29,130.3,130.29,130.3, 600
01/03/2020,19:22,130.3,130.3,130.28,130.28, 900
01/03/2020,19:23,130.29,130.29,130.28,130.28, 580
01/03/2020,19:24,130.3,130.31,130.3,130.31, 904
01/03/2020,19:26,130.36,130.4,130.36,130.4, 200
01/03/2020,19:26,130.44,130.44,130.41,130.41, 476
01/03/2020,19:27,130.42,130.42,130.39,130.41, 699
01/03/2020,19:29,130.4,130.4,130.39,130.39, 300
01/03/2020,19:30,130.4,130.4,130.4,130.4, 200
01/03/2020,19:30,130.37,130.37,130.33,130.33, 700
01/03/2020,19:32,130.33,130.33,130.31,130.32, 700
01/03/2020,19:33,130.32,130.35,130.31,130.34, 800
01/03/2020,19:34,130.34,130.35,130.32,130.32, 920
01/03/2020,19:35,130.33,130.33,130.28,130.31, 3290
01/03/2020,19:36,130.3,130.3,130.27,130.27, 900
01/03/2020,19:37,130.25,130.27,130.25,130.26, 912
01/03/2020,19:38,130.25,130.25,130.07,130.07, 1415
01/03/2020,19:39,130.03,130.08,129.96,130.06, 2716
01/03/2020,19:40,130.09,130.18,130.06,130.18, 900
01/03/2020,19:40,130.19,130.21,130.13,130.21, 1002
01/03/2020,19:42,130.26,130.26,130.18,130.18, 1353
01/03/2020,19:43,130.21,130.22,130.14,130.15, 1545
01/03/2020,19:43,130.17,130.19,130.17,130.19, 300
01/03/2020,19:45,130.13,130.15,130.13,130.13, 730
01/03/2020,19:46,130.19,130.19,130.17,130.17, 427
01/03/2020,19:47,130.18,130.2,130.15,130.15, 500
01/03/2020,19:48,130.12,130.13,130.12,130.12, 520
01/03/2020,19:49,130.1,130.1,130.1,130.1, 300
01/03/2020,19:50,130.08,130.08,130.06,130.06, 555
01/03/2020,19:52,130.06,130.06,130.03,130.03, 3297
01/03/2020,19:53,130.07,130.12,130.07,130.12, 1298
01/03/2020,19:54,130.11,130.14,130.1,130.11, 1317
01/03/2020,19:55,130.11,130.11,130.06,130.07, 3519
01/03/2020,19:55,130.08,130.09,130.02,130.09, 2100
01/03/2020,19:56,130.06,130.06,130.05,130.05, 1202
01/03/2020,19:58,130.08,130.09,130.05,130.09, 400
01/03/2020,19:59,130.05,130.08,130.02,130.03, 1545
01/03/2020,19:59,130.05,130.05,130.01,130.01, 700
01/03/2020,20:01,130,130.02,129.99,130.02, 911
01/03/2020,20:02,130.02,130.02,130.02,130.02, 200
01/03/2020,20:03,129.99,130.02,129.97,130.01, 1100
01/03/2020,20:04,129.96,129.98,129.95,129.98, 500
01/03/2020,20:05,129.96,129.96,129.9,129.93, 1635
01/03/2020,20:05,129.91,129.94,129.88,129.94, 1347
01/03/2020,20:06,129.9,129.91,129.9,129.9, 800
01/03/2020,20:07,129.9,129.9,129.9,129.9, 200
01/03/2020,20:08,129.9,129.9,129.89,129.9, 714
01/03/2020,20:10,129.9,129.9,129.85,129.86, 2807
01/03/2020,20:10,129.82,129.82,129.79,129.79, 310
01/03/2020,20:11,129.79,129.85,129.79,129.83, 2910
01/03/2020,20:12,129.8,129.8,129.78,129.78, 304
01/03/2020,20:13,129.83,129.87,129.83,129.83, 1333
01/03/2020,20:15,129.8,129.81,129.79,129.81, 300
01/03/2020,20:16,129.78,129.78,129.73,129.76, 1605
01/03/2020,20:17,129.78,129.81,129.77,129.8, 2201
01/03/2020,20:18,129.82,129.82,129.72,129.81, 2120
01/03/2020,20:18,129.82,129.82,129.81,129.81, 700
01/03/2020,20:19,129.8,129.81,129.79,129.81, 511
01/03/2020,20:20,129.81,129.81,129.77,129.77, 609
01/03/2020,20:21,129.75,129.77,129.75,129.76, 800
01/03/2020,20:23,129.78,129.78,129.75,129.76, 500
01/03/2020,20:23,129.78,129.78,129.78,129.78, 100
01/03/2020,20:25,129.74,129.83,129.73,129.81, 2721
01/03/2020,20:26,129.81,129.85,129.81,129.83, 700
01/03/2020,20:27,129.82,129.82,129.8,129.82, 2100
01/03/2020,20:27,129.82,129.82,129.8,129.81, 600
01/03/2020,20:29,129.81,129.81,129.72,129.75, 3550
01/03/2020,20:30,129.73,129.78,129.72,129.72, 2098
01/03/2020,20:31,129.73,129.76,129.73,129.73, 1501
01/03/2020,20:32,129.74,129.76,129.72,129.76, 2640
01/03/2020,20:32,129.73,129.76,129.71,129.72, 1400
01/03/2020,20:34,129.71,129.71,129.69,129.7, 1100
01/03/2020,20:35,129.69,129.71,129.66,129.71, 1457
01/03/2020,20:36,129.69,129.7,129.67,129.7, 1202
01/03/2020,20:37,129.68,129.73,129.68,129.73, 1200
01/03/2020,20:37,129.74,129.74,129.74,129.74, 100
01/03/2020,20:39,129.75,129.75,129.71,129.71, 1701
01/03/2020,20:40,129.7,129.71,129.68,129.71, 1133
01/03/2020,20:41,129.74,129.75,129.69,129.69, 1693
01/03/2020,20:42,129.69,129.75,129.66,129.75, 1490
01/03/2020,20:43,129.75,129.78,129.75,129.78, 300
01/03/2020,20:43,129.75,129.76,129.74,129.74, 1250
01/03/2020,20:45,129.73,129.78,129.72,129.76, 1200
01/03/2020,20:46,129.78,129.81,129.76,129.79, 1665
01/03/2020,20:47,129.81,129.9,129.81,129.87, 1161
01/03/2020,20:48,129.86,129.86,129.8,129.8, 600
01/03/2020,20:49,129.82,129.82,129.8,129.82, 1463
01/03/2020,20:50,129.81,129.83,129.8,129.83, 1220
01/03/2020,20:51,129.83,129.83,129.81,129.82, 1132
01/03/2020,20:51,129.82,129.83,129.82,129.83, 400
01/03/2020,20:53,129.83,129.83,129.8,129.83, 1912
01/03/2020,20:53,129.83,129.83,129.83,129.83, 300
01/03/2020,20:54,129.81,129.83,129.81,129.82, 1100
01/03/2020,20:55,129.83,129.85,129.83,129.83, 300
01/03/2020,20:57,129.85,129.86,129.83,129.83, 1110
01/03/2020,20:58,129.85,129.88,129.84,129.88, 1017
01/03/2020,20:59,129.89,129.96,129.89,129.96, 1400
01/03/2020,20:59,129.92,129.94,129.91,129.94, 901
01/03/2020,21:01,129.93,129.93,129.87,129.89, 3129
01/03/2020,21:02,129.9,129.92,129.89,129.9, 5301
01/03/2020,21:03,129.91,130.02,129.89,129.98, 1900
01/03/2020,21:04,130.05,130.14,130.03,130.1, 2500
01/03/2020,21:04,130.08,130.1,130.08,130.1, 900
01/03/2020,21:05,130.14,130.18,130.13,130.14, 1000
01/03/2020,21:07,130.12,130.16,130.1,130.14, 4757
01/03/2020,21:08,130.16,130.16,130.12,130.15, 1346
01/03/2020,21:09,130.17,130.17,130.11,130.13, 2312
01/03/2020,21:10,130.13,130.2,130.13,130.2, 1700
01/03/2020,21:10,130.18,130.18,130.15,130.15, 605
01/03/2020,21:12,130.14,130.14,130.11,130.13, 3334
01/03/2020,21:13,130.16,130.2,130.16,130.17, 1543
01/03/2020,21:13,130.17,130.17,130.16,130.17, 500
01/03/2020,21:15,130.16,130.18,130.1,130.14, 1899
01/03/2020,21:16,130.15,130.25,130.15,130.25, 1100
01/03/2020,21:17,130.23,130.28,130.17,130.17, 6100
01/03/2020,21:17,130.18,130.18,130.12,130.12, 800
01/03/2020,21:19,130.15,130.15,130.12,130.15, 731
01/03/2020,21:20,130.17,130.26,130.17,130.24, 2976
01/03/2020,21:21,130.24,130.25,130.21,130.25, 1500
01/03/2020,21:22,130.26,130.29,130.18,130.18, 2188
01/03/2020,21:23,130.13,130.18,130.12,130.18, 500
01/03/2020,21:24,130.19,130.2,130.15,130.19, 2901
01/03/2020,21:25,130.15,130.15,130.11,130.12, 2266
01/03/2020,21:26,130.11,130.17,130.1,130.17, 2400
01/03/2020,21:27,130.18,130.21,130.18,130.18, 2400
01/03/2020,21:28,130.18,130.22,130.18,130.18, 7483
01/03/2020,21:29,130.2,130.23,130.17,130.2, 5267
01/03/2020,21:30,130.2,130.2,130.15,130.15, 2134
01/03/2020,21:31,130.15,130.15,130.11,130.11, 696
01/03/2020,21:32,130.05,130.07,130,130, 1400
01/03/2020,21:33,129.98,129.98,129.93,129.97, 1503
01/03/2020,21:34,129.97,129.99,129.97,129.99, 900
01/03/2020,21:35,129.99,130.02,129.99,130.02, 3477
01/03/2020,21:36,130.01,130.01,129.89,129.89, 2368
01/03/2020,21:37,129.91,129.91,129.87,129.87, 2802
01/03/2020,21:38,129.87,129.89,129.86,129.88, 4410
01/03/2020,21:39,129.88,129.93,129.88,129.9, 1300
01/03/2020,21:40,129.87,129.89,129.79,129.79, 1600
01/03/2020,21:41,129.81,129.81,129.76,129.76, 805
01/03/2020,21:42,129.76,129.79,129.75,129.79, 2802
01/03/2020,21:43,129.8,129.85,129.78,129.84, 3710
01/03/2020,21:44,129.84,129.84,129.79,129.81, 1012
01/03/2020,21:45,129.79,129.88,129.79,129.87, 3700
01/03/2020,21:46,129.88,129.89,129.79,129.85, 4815
01/03/2020,21:47,129.86,129.9,129.83,129.9, 2895
01/03/2020,21:48,129.88,129.89,129.84,129.84, 4395
01/03/2020,21:49,129.83,129.83,129.72,129.73, 5582
01/03/2020,21:50,129.72,129.72,129.63,129.72, 6481
01/03/2020,21:51,129.74,129.83,129.74,129.81, 5300
01/03/2020,21:52,129.83,129.9,129.82,129.87, 9952
01/03/2020,21:53,129.87,129.98,129.87,129.98, 9242
01/03/2020,21:54,129.99,130.04,129.94,129.95, 8390
01/03/2020,21:55,129.96,129.96,129.9,129.91, 10942
01/03/2020,21:56,129.91,129.97,129.9,129.95, 8152
01/03/2020,21:57,129.95,129.95,129.85,129.86, 10815
01/03/2020,21:58,129.87,129.89,129.8,129.81, 15520
01/03/2020,21:59,129.82,129.83,129.78,129.83, 21528
01/03/2020,22:00,129.81,129.95,129.8,129.9, 31583
01/03/2020,22:01,129.88,129.88,129.64,129.64, 28420
01/03/2020,22:01,129.64,129.65,129.64,129.64, 7900
01/03/2020,22:05,129.69,129.69,129.69,129.69, 413758
01/06/2020,15:31,128.89,129,128.89,129, 9528
01/06/2020,15:32,129.2,129.2,129.2,129.2, 100
01/06/2020,15:33,128.96,128.96,128.96,128.96, 100
01/06/2020,15:35,129.09,129.09,128.99,128.99, 300
01/06/2020,15:36,129.12,129.12,128.92,128.96, 1500
01/06/2020,15:37,129.08,129.19,129.08,129.19, 200
01/06/2020,15:38,129.19,129.21,129.13,129.21, 400
01/06/2020,15:39,129.2,129.2,129.01,129.01, 900
01/06/2020,15:40,129.01,129.02,129.01,129.02, 300
01/06/2020,15:40,128.97,128.97,128.97,128.97, 100
01/06/2020,15:42,129.09,129.12,129.08,129.09, 539
01/06/2020,15:42,129.12,129.13,129.12,129.13, 602
01/06/2020,15:44,129.13,129.31,129.09,129.31, 1000
01/06/2020,15:45,129.29,129.29,129.19,129.22, 800
01/06/2020,15:46,129.15,129.15,129.15,129.15, 100
01/06/2020,15:47,129.1,129.15,129.1,129.15, 500
01/06/2020,15:48,129.1,129.15,129.1,129.11, 300
01/06/2020,15:49,129,129.14,129,129.09, 889
01/06/2020,15:50,129.04,129.07,128.92,129.02, 1301
01/06/2020,15:51,129.08,129.16,129.07,129.11, 2200
01/06/2020,15:52,129.14,129.24,129.12,129.13, 2577
01/06/2020,15:53,129.16,129.16,129.03,129.03, 600
01/06/2020,15:54,129.07,129.14,129.07,129.13, 1200
01/06/2020,15:55,129.14,129.2,129.06,129.07, 5866
01/06/2020,15:56,129.07,129.07,128.99,129.05, 2659
01/06/2020,15:57,129.07,129.11,129.07,129.11, 400
01/06/2020,15:58,129.11,129.26,129.11,129.23, 1500
01/06/2020,15:59,129.29,129.33,129.18,129.18, 2710
01/06/2020,16:00,129.18,129.19,129.17,129.19, 500
01/06/2020,16:01,129.16,129.17,129.05,129.06, 2621
01/06/2020,16:02,129.03,129.07,129.03,129.04, 1000
01/06/2020,16:03,129.04,129.04,129,129.01, 902
01/06/2020,16:04,129.02,129.05,129,129.05, 600
01/06/2020,16:05,129.05,129.06,129,129.01, 2250
01/06/2020,16:06,129.01,129.04,129,129, 800
01/06/2020,16:07,128.99,129,128.88,128.88, 960
01/06/2020,16:08,128.87,128.87,128.82,128.87, 1100
01/06/2020,16:09,128.83,128.87,128.82,128.85, 1550
01/06/2020,16:10,128.84,128.9,128.74,128.9, 3350
01/06/2020,16:11,128.96,128.96,128.94,128.94, 300
01/06/2020,16:12,128.87,128.89,128.87,128.89, 700
01/06/2020,16:13,128.95,128.99,128.95,128.98, 400
01/06/2020,16:14,128.97,128.99,128.94,128.95, 1419
01/06/2020,16:15,128.93,128.93,128.89,128.89, 200
01/06/2020,16:16,128.86,128.86,128.8,128.85, 1000
01/06/2020,16:17,128.89,128.9,128.89,128.89, 500
01/06/2020,16:18,128.88,128.96,128.87,128.93, 800
01/06/2020,16:19,128.92,129.01,128.91,129, 1863
01/06/2020,16:20,129.01,129.17,129.01,129.15, 1233
01/06/2020,16:21,129.12,129.12,129.01,129.03, 1669
01/06/2020,16:22,129.01,129.01,128.98,128.98, 780
01/06/2020,16:23,129.04,129.07,129.02,129.07, 910
01/06/2020,16:24,129.07,129.09,129.07,129.09, 300
01/06/2020,16:25,129.12,129.16,129.11,129.11, 1310
01/06/2020,16:26,129.14,129.21,129.14,129.2, 1500
01/06/2020,16:27,129.22,129.27,129.21,129.21, 600
01/06/2020,16:28,129.25,129.31,129.21,129.26, 1599
01/06/2020,16:29,129.31,129.32,129.27,129.27, 1800
01/06/2020,16:30,129.3,129.4,129.3,129.4, 1600
01/06/2020,16:31,129.41,129.42,129.38,129.4, 1600
01/06/2020,16:32,129.39,129.39,129.34,129.34, 1801
01/06/2020,16:32,129.38,129.38,129.38,129.38, 100
01/06/2020,16:34,129.4,129.4,129.35,129.37, 600
01/06/2020,16:35,129.34,129.34,129.29,129.34, 759
01/06/2020,16:36,129.31,129.32,129.28,129.3, 1254
01/06/2020,16:37,129.26,129.26,129.23,129.23, 535
01/06/2020,16:38,129.23,129.31,129.23,129.27, 2600
01/06/2020,16:39,129.3,129.31,129.24,129.24, 1335
01/06/2020,16:40,129.28,129.34,129.28,129.32, 929
01/06/2020,16:41,129.32,129.33,129.29,129.29, 1001
01/06/2020,16:42,129.24,129.28,129.24,129.27, 700
01/06/2020,16:43,129.32,129.42,129.32,129.42, 2317
01/06/2020,16:44,129.42,129.47,129.4,129.47, 1204
01/06/2020,16:45,129.46,129.6,129.46,129.6, 1358
01/06/2020,16:46,129.57,129.58,129.5,129.53, 1390
01/06/2020,16:47,129.52,129.56,129.5,129.56, 1400
01/06/2020,16:48,129.51,129.51,129.48,129.48, 500
01/06/2020,16:49,129.46,129.46,129.36,129.36, 620
01/06/2020,16:50,129.34,129.41,129.33,129.39, 1711
01/06/2020,16:51,129.41,129.45,129.41,129.45, 800
01/06/2020,16:52,129.45,129.47,129.4,129.4, 996
01/06/2020,16:53,129.4,129.4,129.33,129.4, 2836
01/06/2020,16:54,129.4,129.43,129.4,129.41, 852
01/06/2020,16:55,129.41,129.41,129.38,129.39, 400
01/06/2020,16:56,129.41,129.49,129.41,129.49, 1507
01/06/2020,16:57,129.45,129.46,129.36,129.36, 1702
01/06/2020,16:58,129.34,129.34,129.32,129.32, 700
01/06/2020,16:59,129.31,129.36,129.28,129.36, 2020
01/06/2020,17:00,129.36,129.37,129.29,129.29, 1520
01/06/2020,17:01,129.29,129.31,129.29,129.29, 700
01/06/2020,17:02,129.31,129.34,129.28,129.29, 1520
01/06/2020,17:03,129.3,129.3,129.29,129.29, 300
01/06/2020,17:04,129.31,129.34,129.3,129.32, 2867
01/06/2020,17:05,129.3,129.32,129.27,129.29, 1300
01/06/2020,17:06,129.27,129.28,129.24,129.27, 1797
01/06/2020,17:07,129.26,129.26,129.26,129.26, 400
01/06/2020,17:08,129.26,129.35,129.26,129.32, 3192
01/06/2020,17:09,129.34,129.35,129.34,129.35, 693
01/06/2020,17:10,129.34,129.36,129.33,129.36, 1096
01/06/2020,17:11,129.37,129.42,129.37,129.41, 802
01/06/2020,17:12,129.44,129.47,129.39,129.39, 2633
01/06/2020,17:13,129.37,129.45,129.37,129.45, 300
01/06/2020,17:16,129.39,129.39,129.39,129.39, 100
01/06/2020,17:17,129.34,129.34,129.28,129.32, 2405
01/06/2020,17:18,129.31,129.35,129.31,129.31, 955
01/06/2020,17:19,129.32,129.32,129.26,129.26, 200
01/06/2020,17:20,129.26,129.32,129.25,129.32, 1924
01/06/2020,17:21,129.24,129.24,129.13,129.18, 1600
01/06/2020,17:22,129.19,129.28,129.19,129.28, 400
01/06/2020,17:23,129.24,129.24,129.22,129.22, 200
01/06/2020,17:24,129.21,129.21,129.16,129.16, 375
01/06/2020,17:24,129.13,129.13,129.13,129.13, 100
01/06/2020,17:26,129.14,129.14,129.09,129.09, 700
01/06/2020,17:27,129.08,129.08,129,129, 1300
01/06/2020,17:28,129,129.04,129,129.04, 600
01/06/2020,17:29,129.01,129.03,128.97,129.03, 3338
01/06/2020,17:30,129.03,129.16,129.03,129.1, 1401
01/06/2020,17:31,129.1,129.1,129.06,129.06, 600
01/06/2020,17:32,129.06,129.09,129.01,129.01, 900
01/06/2020,17:33,129,129.1,128.98,129.1, 2558
01/06/2020,17:34,129.09,129.13,129.09,129.1, 1719
01/06/2020,17:35,129.07,129.07,129,129, 700
01/06/2020,17:36,129.01,129.01,128.97,128.97, 427
01/06/2020,17:37,128.95,128.97,128.95,128.97, 300
01/06/2020,17:38,128.95,129.09,128.95,129.08, 1503
01/06/2020,17:39,129.1,129.12,129.09,129.09, 1107
01/06/2020,17:40,129.11,129.14,129.1,129.14, 601
01/06/2020,17:41,129.19,129.26,129.17,129.26, 900
01/06/2020,17:42,129.3,129.3,129.25,129.25, 600
01/06/2020,17:43,129.25,129.26,129.2,129.23, 1700
01/06/2020,17:44,129.27,129.27,129.27,129.27, 200
01/06/2020,17:45,129.28,129.3,129.26,129.29, 955
01/06/2020,17:46,129.31,129.39,129.31,129.37, 400
01/06/2020,17:47,129.42,129.46,129.38,129.38, 1097
01/06/2020,17:48,129.4,129.45,129.38,129.42, 1024
01/06/2020,17:49,129.4,129.4,129.35,129.35, 1501
01/06/2020,17:50,129.36,129.36,129.27,129.27, 800
01/06/2020,17:51,129.32,129.32,129.31,129.31, 300
01/06/2020,17:52,129.28,129.28,129.28,129.28, 100
01/06/2020,17:53,129.28,129.28,129.28,129.28, 100
01/06/2020,17:54,129.28,129.28,129.23,129.23, 400
01/06/2020,17:55,129.23,129.27,129.23,129.26, 2175
01/06/2020,17:56,129.25,129.34,129.25,129.34, 2328
01/06/2020,17:57,129.36,129.41,129.36,129.4, 900
01/06/2020,17:58,129.44,129.47,129.36,129.46, 2261
01/06/2020,17:59,129.49,129.53,129.46,129.5, 1100
01/06/2020,18:00,129.5,129.55,129.47,129.53, 900
01/06/2020,18:01,129.55,129.55,129.45,129.48, 2370
01/06/2020,18:02,129.5,129.57,129.5,129.57, 600
01/06/2020,18:03,129.66,129.67,129.61,129.62, 700
01/06/2020,18:04,129.66,129.69,129.66,129.69, 300
01/06/2020,18:05,129.77,129.77,129.77,129.77, 200
01/06/2020,18:06,129.77,129.81,129.77,129.77, 1000
01/06/2020,18:07,129.84,129.89,129.84,129.84, 1211
01/06/2020,18:08,129.83,129.98,129.83,129.98, 1200
01/06/2020,18:09,129.93,129.97,129.89,129.91, 2304
01/06/2020,18:10,129.89,129.89,129.89,129.89, 526
01/06/2020,18:11,129.9,129.9,129.88,129.88, 236
01/06/2020,18:12,129.92,129.92,129.89,129.89, 376
01/06/2020,18:14,129.82,129.82,129.8,129.82, 400
01/06/2020,18:15,129.79,129.8,129.79,129.8, 332
01/06/2020,18:16,129.75,129.78,129.75,129.78, 329
01/06/2020,18:17,129.77,129.77,129.75,129.75, 300
01/06/2020,18:18,129.71,129.75,129.71,129.75, 1700
01/06/2020,18:19,129.77,129.84,129.77,129.81, 507
01/06/2020,18:20,129.81,129.85,129.8,129.84, 733
01/06/2020,18:21,129.82,129.82,129.82,129.82, 200
01/06/2020,18:22,129.82,129.83,129.8,129.8, 800
01/06/2020,18:23,129.81,129.81,129.78,129.78, 400
01/06/2020,18:24,129.84,129.84,129.84,129.84, 138
01/06/2020,18:25,129.82,129.86,129.82,129.86, 687
01/06/2020,18:26,129.89,129.92,129.88,129.92, 813
01/06/2020,18:27,129.9,129.9,129.8,129.8, 1000
01/06/2020,18:28,129.8,129.8,129.8,129.8, 200
01/06/2020,18:29,129.8,129.8,129.8,129.8, 100
01/06/2020,18:30,129.78,129.78,129.78,129.78, 100
01/06/2020,18:31,129.76,129.76,129.75,129.75, 200
01/06/2020,18:32,129.75,129.75,129.71,129.71, 500
01/06/2020,18:33,129.7,129.74,129.69,129.74, 732
01/06/2020,18:34,129.75,129.8,129.75,129.8, 1139
01/06/2020,18:35,129.8,129.81,129.69,129.69, 1286
01/06/2020,18:36,129.69,129.69,129.69,129.69, 100
01/06/2020,18:37,129.69,129.69,129.66,129.67, 460
01/06/2020,18:39,129.68,129.72,129.68,129.72, 547
01/06/2020,18:40,129.72,129.72,129.65,129.65, 1064
01/06/2020,18:41,129.66,129.7,129.66,129.7, 413
01/06/2020,18:42,129.71,129.71,129.69,129.69, 370
01/06/2020,18:43,129.71,129.75,129.71,129.72, 1100
01/06/2020,18:44,129.72,129.72,129.72,129.72, 200
01/06/2020,18:45,129.73,129.73,129.7,129.7, 628
01/06/2020,18:46,129.66,129.67,129.65,129.65, 961
01/06/2020,18:47,129.64,129.64,129.64,129.64, 100
01/06/2020,18:48,129.66,129.71,129.66,129.71, 1389
01/06/2020,18:48,129.67,129.67,129.67,129.67, 156
01/06/2020,18:50,129.66,129.66,129.61,129.61, 500
01/06/2020,18:51,129.59,129.59,129.57,129.59, 300
01/06/2020,18:52,129.6,129.6,129.6,129.6, 100
01/06/2020,18:53,129.59,129.59,129.55,129.55, 1669
01/06/2020,18:54,129.54,129.56,129.53,129.56, 525
01/06/2020,18:57,129.65,129.65,129.58,129.58, 601
01/06/2020,18:58,129.57,129.57,129.57,129.57, 300
01/06/2020,18:59,129.62,129.62,129.62,129.62, 100
01/06/2020,19:01,129.62,129.62,129.56,129.58, 1548
01/06/2020,19:02,129.6,129.65,129.6,129.63, 614
01/06/2020,19:03,129.63,129.63,129.61,129.61, 500
01/06/2020,19:04,129.64,129.66,129.64,129.64, 600
01/06/2020,19:05,129.66,129.66,129.61,129.61, 700
01/06/2020,19:07,129.61,129.72,129.61,129.72, 1302
01/06/2020,19:08,129.76,129.76,129.69,129.69, 1101
01/06/2020,19:09,129.71,129.74,129.71,129.73, 600
01/06/2020,19:10,129.73,129.74,129.69,129.69, 1739
01/06/2020,19:11,129.69,129.69,129.69,129.69, 100
01/06/2020,19:12,129.69,129.76,129.69,129.7, 1263
01/06/2020,19:13,129.68,129.68,129.67,129.67, 300
01/06/2020,19:14,129.7,129.7,129.66,129.67, 500
01/06/2020,19:15,129.64,129.64,129.51,129.51, 7115
01/06/2020,19:16,129.54,129.56,129.54,129.54, 750
01/06/2020,19:16,129.54,129.54,129.54,129.54, 100
01/06/2020,19:18,129.55,129.55,129.55,129.55, 100
01/06/2020,19:19,129.56,129.56,129.5,129.5, 400
01/06/2020,19:21,129.51,129.51,129.48,129.48, 900
01/06/2020,19:22,129.5,129.5,129.5,129.5, 100
01/06/2020,19:23,129.51,129.52,129.5,129.5, 400
01/06/2020,19:24,129.5,129.5,129.42,129.42, 1200
01/06/2020,19:25,129.42,129.43,129.39,129.39, 900
01/06/2020,19:26,129.4,129.4,129.4,129.4, 100
01/06/2020,19:28,129.41,129.42,129.39,129.39, 2268
01/06/2020,19:29,129.4,129.42,129.4,129.42, 600
01/06/2020,19:30,129.41,129.42,129.38,129.38, 825
01/06/2020,19:32,129.38,129.4,129.35,129.35, 1201
01/06/2020,19:34,129.4,129.4,129.35,129.35, 500
01/06/2020,19:35,129.33,129.33,129.27,129.28, 1666
01/06/2020,19:36,129.3,129.34,129.3,129.34, 700
01/06/2020,19:37,129.32,129.35,129.32,129.35, 200
01/06/2020,19:38,129.4,129.4,129.34,129.34, 1800
01/06/2020,19:39,129.36,129.37,129.36,129.37, 200
01/06/2020,19:40,129.38,129.39,129.37,129.37, 1315
01/06/2020,19:41,129.41,129.41,129.33,129.33, 1327
01/06/2020,19:43,129.32,129.36,129.32,129.36, 1020
01/06/2020,19:44,129.35,129.38,129.35,129.36, 800
01/06/2020,19:45,129.36,129.36,129.36,129.36, 100
01/06/2020,19:46,129.36,129.36,129.34,129.34, 500
01/06/2020,19:47,129.36,129.37,129.36,129.37, 200
01/06/2020,19:48,129.36,129.36,129.32,129.32, 1002
01/06/2020,19:49,129.33,129.33,129.29,129.29, 800
01/06/2020,19:50,129.29,129.29,129.29,129.29, 200
01/06/2020,19:51,129.3,129.3,129.29,129.29, 400
01/06/2020,19:52,129.29,129.29,129.26,129.26, 1041
01/06/2020,19:53,129.26,129.27,129.24,129.25, 1328
01/06/2020,19:54,129.27,129.27,129.26,129.26, 300
01/06/2020,19:55,129.24,129.25,129.21,129.25, 940
01/06/2020,19:56,129.27,129.27,129.23,129.23, 601
01/06/2020,19:57,129.22,129.23,129.2,129.23, 400
01/06/2020,19:58,129.27,129.38,129.27,129.38, 1658
01/06/2020,19:59,129.42,129.43,129.41,129.41, 831
01/06/2020,20:00,129.41,129.41,129.39,129.39, 714
01/06/2020,20:01,129.39,129.39,129.3,129.3, 1152
01/06/2020,20:02,129.27,129.29,129.26,129.26, 1751
01/06/2020,20:03,129.25,129.26,129.23,129.23, 2768
01/06/2020,20:04,129.24,129.25,129.23,129.23, 2226
01/06/2020,20:05,129.23,129.24,129.19,129.19, 600
01/06/2020,20:06,129.21,129.3,129.21,129.28, 617
01/06/2020,20:07,129.31,129.31,129.3,129.3, 400
01/06/2020,20:08,129.32,129.34,129.32,129.33, 555
01/06/2020,20:09,129.34,129.45,129.33,129.45, 1461
01/06/2020,20:10,129.44,129.44,129.44,129.44, 110
01/06/2020,20:11,129.42,129.48,129.38,129.38, 3405
01/06/2020,20:12,129.38,129.41,129.38,129.38, 400
01/06/2020,20:13,129.41,129.47,129.39,129.39, 1400
01/06/2020,20:14,129.37,129.39,129.35,129.36, 823
01/06/2020,20:15,129.36,129.41,129.36,129.41, 400
01/06/2020,20:16,129.4,129.44,129.4,129.41, 600
01/06/2020,20:17,129.43,129.46,129.41,129.46, 1607
01/06/2020,20:18,129.46,129.46,129.43,129.43, 4301
01/06/2020,20:20,129.49,129.52,129.49,129.5, 500
01/06/2020,20:21,129.52,129.52,129.47,129.5, 697
01/06/2020,20:22,129.52,129.56,129.52,129.55, 1123
01/06/2020,20:23,129.55,129.6,129.55,129.57, 1047
01/06/2020,20:24,129.59,129.59,129.49,129.49, 1200
01/06/2020,20:25,129.48,129.48,129.48,129.48, 200
01/06/2020,20:26,129.48,129.48,129.4,129.4, 700
01/06/2020,20:27,129.4,129.4,129.38,129.39, 600
01/06/2020,20:28,129.38,129.38,129.38,129.38, 200
01/06/2020,20:29,129.39,129.41,129.37,129.37, 2425
01/06/2020,20:30,129.36,129.36,129.34,129.34, 300
01/06/2020,20:31,129.32,129.33,129.3,129.3, 428
01/06/2020,20:32,129.3,129.3,129.23,129.23, 1113
01/06/2020,20:33,129.26,129.27,129.23,129.25, 1010
01/06/2020,20:34,129.26,129.26,129.22,129.22, 716
01/06/2020,20:35,129.21,129.24,129.21,129.21, 1100
01/06/2020,20:36,129.23,129.24,129.21,129.21, 1328
01/06/2020,20:37,129.2,129.2,129.2,129.2, 200
01/06/2020,20:38,129.21,129.21,129.18,129.18, 824
01/06/2020,20:39,129.17,129.22,129.17,129.21, 1797
01/06/2020,20:40,129.22,129.27,129.22,129.26, 2630
01/06/2020,20:41,129.25,129.26,129.23,129.24, 1033
01/06/2020,20:42,129.26,129.33,129.26,129.31, 800
01/06/2020,20:43,129.35,129.42,129.35,129.39, 2001
01/06/2020,20:44,129.41,129.41,129.37,129.37, 1526
01/06/2020,20:45,129.36,129.38,129.36,129.36, 1000
01/06/2020,20:46,129.39,129.4,129.37,129.37, 900
01/06/2020,20:47,129.37,129.37,129.3,129.3, 400
01/06/2020,20:48,129.29,129.29,129.28,129.28, 800
01/06/2020,20:49,129.3,129.3,129.26,129.26, 1014
01/06/2020,20:50,129.27,129.28,129.27,129.28, 500
01/06/2020,20:51,129.28,129.28,129.26,129.26, 723
01/06/2020,20:52,129.25,129.27,129.24,129.24, 900
01/06/2020,20:53,129.23,129.24,129.23,129.24, 353
01/06/2020,20:54,129.23,129.23,129.18,129.18, 300
01/06/2020,20:55,129.19,129.19,129.15,129.15, 1069
01/06/2020,20:56,129.15,129.16,129.13,129.14, 1218
01/06/2020,20:57,129.14,129.24,129.14,129.24, 1300
01/06/2020,20:58,129.27,129.27,129.24,129.25, 1015
01/06/2020,20:59,129.26,129.33,129.26,129.33, 1716
01/06/2020,21:00,129.3,129.32,129.21,129.21, 1900
01/06/2020,21:01,129.22,129.25,129.22,129.22, 1606
01/06/2020,21:02,129.2,129.2,129.18,129.19, 1210
01/06/2020,21:03,129.18,129.19,129.15,129.16, 1541
01/06/2020,21:04,129.17,129.17,129.15,129.15, 900
01/06/2020,21:05,129.17,129.18,129.16,129.17, 1821
01/06/2020,21:06,129.17,129.19,129.17,129.17, 902
01/06/2020,21:07,129.15,129.15,129.07,129.07, 1201
01/06/2020,21:08,129.06,129.06,129.05,129.06, 1314
01/06/2020,21:09,129.07,129.11,129.05,129.05, 2219
01/06/2020,21:10,129.05,129.05,129.04,129.04, 800
01/06/2020,21:11,129.06,129.06,129.03,129.04, 1601
01/06/2020,21:12,129.04,129.09,129.04,129.06, 1900
01/06/2020,21:13,129.09,129.09,129.04,129.04, 832
01/06/2020,21:14,129.03,129.05,129.03,129.04, 900
01/06/2020,21:15,129.03,129.08,129.03,129.06, 2171
01/06/2020,21:16,129.06,129.1,129.06,129.1, 1546
01/06/2020,21:17,129.11,129.15,129.11,129.14, 1501
01/06/2020,21:18,129.13,129.15,129.12,129.13, 700
01/06/2020,21:19,129.12,129.14,129.09,129.09, 1873
01/06/2020,21:20,129.11,129.11,129.09,129.09, 423
01/06/2020,21:21,129.08,129.08,129.01,129.01, 822
01/06/2020,21:22,129.01,129.06,128.99,128.99, 3160
01/06/2020,21:23,129.01,129.01,128.99,128.99, 200
01/06/2020,21:24,128.97,129.01,128.97,129.01, 800
01/06/2020,21:25,129.01,129.01,128.94,128.94, 1325
01/06/2020,21:26,128.96,128.96,128.96,128.96, 100
01/06/2020,21:27,128.97,128.97,128.95,128.96, 1300
01/06/2020,21:28,128.97,128.98,128.95,128.95, 1312
01/06/2020,21:29,128.94,128.96,128.94,128.94, 1141
01/06/2020,21:30,128.94,129,128.94,129, 2135
01/06/2020,21:31,129.01,129.06,129,129, 2053
01/06/2020,21:33,129.01,129.02,128.99,129.01, 3436
01/06/2020,21:34,129,129.02,129,129.02, 4064
01/06/2020,21:35,129.02,129.03,128.97,128.97, 1614
01/06/2020,21:36,128.96,129.12,128.95,129.08, 7491
01/06/2020,21:37,129.08,129.1,129.08,129.1, 1800
01/06/2020,21:38,129.1,129.12,129.06,129.06, 2234
01/06/2020,21:39,129.05,129.07,129.03,129.03, 1800
01/06/2020,21:40,129.03,129.03,128.98,128.98, 1920
01/06/2020,21:41,128.98,129.05,128.95,128.99, 3691
01/06/2020,21:42,128.99,128.99,128.9,128.92, 5722
01/06/2020,21:43,128.93,128.96,128.92,128.96, 2513
01/06/2020,21:44,128.96,128.96,128.93,128.96, 3708
01/06/2020,21:45,128.95,129.07,128.95,129.03, 3834
01/06/2020,21:46,129.01,129.06,129.01,129.05, 4575
01/06/2020,21:47,129.04,129.04,129,129.02, 1930
01/06/2020,21:48,129.02,129.11,128.98,129.06, 10871
01/06/2020,21:49,129.07,129.13,129.05,129.11, 5945
01/06/2020,21:50,129.12,129.15,129.09,129.1, 2971
01/06/2020,21:51,129.08,129.09,129.06,129.07, 4825
01/06/2020,21:52,129.06,129.07,129.03,129.07, 6048
01/06/2020,21:53,129.07,129.08,129.05,129.05, 6528
01/06/2020,21:54,129.05,129.11,129.04,129.08, 11524
01/06/2020,21:55,129.08,129.08,129.01,129.05, 9817
01/06/2020,21:56,129.04,129.1,129.02,129.05, 20396
01/06/2020,21:57,129.05,129.14,129.03,129.14, 11668
01/06/2020,21:58,129.12,129.14,129.06,129.08, 11548
01/06/2020,21:59,129.08,129.15,129.08,129.14, 9671
01/06/2020,22:00,129.15,129.15,128.99,129.01, 27167
01/06/2020,22:00,129.02,129.09,129,129.06, 12625
01/06/2020,22:06,129.09,129.09,129.09,129.09, 456669
01/07/2020,15:31,128.59,129.07,128.59,128.64, 10506
01/07/2020,15:32,128.6,128.6,128.57,128.57, 485
01/07/2020,15:33,128.43,128.6,128.43,128.6, 323
01/07/2020,15:34,128.62,128.62,128.62,128.62, 100
01/07/2020,15:35,128.77,128.92,128.71,128.86, 1300
01/07/2020,15:36,128.91,128.91,128.78,128.84, 1607
01/07/2020,15:37,128.78,128.78,128.72,128.73, 300
01/07/2020,15:38,128.81,128.82,128.81,128.82, 300
01/07/2020,15:38,128.83,128.84,128.83,128.84, 400
01/07/2020,15:40,128.74,128.74,128.69,128.69, 200
01/07/2020,15:41,128.66,128.78,128.65,128.71, 578
01/07/2020,15:43,128.68,128.76,128.68,128.76, 691
01/07/2020,15:44,128.73,128.73,128.62,128.66, 1204
01/07/2020,15:45,128.61,128.61,128.61,128.61, 100
01/07/2020,15:46,128.64,128.64,128.64,128.64, 424
01/07/2020,15:48,128.44,128.44,128.44,128.44, 102
01/07/2020,15:49,128.4,128.4,128.34,128.37, 600
01/07/2020,15:50,128.36,128.47,128.36,128.42, 500
01/07/2020,15:51,128.38,128.4,128.33,128.4, 500
01/07/2020,15:52,128.34,128.42,128.34,128.36, 510
01/07/2020,15:53,128.37,128.46,128.37,128.46, 1010
01/07/2020,15:53,128.41,128.41,128.41,128.41, 118
01/07/2020,15:56,128.38,128.38,128.32,128.34, 700
01/07/2020,15:57,128.33,128.37,128.33,128.37, 1000
01/07/2020,15:58,128.37,128.37,128.35,128.36, 559
01/07/2020,15:59,128.32,128.32,128.32,128.32, 100
01/07/2020,16:00,128.34,128.37,128.32,128.37, 3300
01/07/2020,16:01,128.51,128.52,128.48,128.51, 820
01/07/2020,16:02,128.5,128.55,128.5,128.53, 500
01/07/2020,16:03,128.49,128.49,128.35,128.43, 1226
01/07/2020,16:04,128.46,128.48,128.36,128.36, 3320
01/07/2020,16:05,128.41,128.42,128.38,128.42, 500
01/07/2020,16:06,128.38,128.45,128.38,128.45, 200
01/07/2020,16:07,128.45,128.45,128.41,128.41, 300
01/07/2020,16:08,128.47,128.59,128.44,128.45, 3214
01/07/2020,16:09,128.42,128.45,128.39,128.45, 1200
01/07/2020,16:10,128.45,128.45,128.4,128.4, 502
01/07/2020,16:11,128.39,128.39,128.36,128.36, 400
01/07/2020,16:12,128.38,128.38,128.34,128.34, 600
01/07/2020,16:13,128.36,128.38,128.36,128.37, 700
01/07/2020,16:14,128.31,128.34,128.3,128.31, 800
01/07/2020,16:15,128.29,128.34,128.29,128.33, 1000
01/07/2020,16:16,128.35,128.37,128.31,128.32, 2000
01/07/2020,16:17,128.32,128.32,128.29,128.29, 725
01/07/2020,16:18,128.3,128.31,128.3,128.31, 300
01/07/2020,16:19,128.29,128.31,128.26,128.26, 308
01/07/2020,16:20,128.15,128.15,128.15,128.15, 100
01/07/2020,16:21,128.17,128.21,128.17,128.17, 1324
01/07/2020,16:22,128.14,128.14,128.14,128.14, 200
01/07/2020,16:23,128.14,128.14,128.12,128.12, 500
01/07/2020,16:24,128.1,128.11,128.09,128.09, 300
01/07/2020,16:25,128.13,128.24,128.1,128.22, 1865
01/07/2020,16:26,128.2,128.29,128.2,128.29, 1300
01/07/2020,16:27,128.27,128.3,128.26,128.28, 1500
01/07/2020,16:28,128.27,128.27,128.22,128.22, 1100
01/07/2020,16:29,128.23,128.34,128.23,128.32, 1980
01/07/2020,16:30,128.35,128.5,128.33,128.5, 1447
01/07/2020,16:31,128.5,128.54,128.48,128.48, 2100
01/07/2020,16:32,128.48,128.51,128.45,128.47, 812
01/07/2020,16:33,128.48,128.48,128.37,128.39, 2200
01/07/2020,16:34,128.43,128.45,128.42,128.45, 300
01/07/2020,16:35,128.46,128.54,128.46,128.54, 700
01/07/2020,16:36,128.55,128.6,128.54,128.54, 900
01/07/2020,16:37,128.56,128.57,128.52,128.56, 2759
01/07/2020,16:38,128.56,128.59,128.56,128.59, 301
01/07/2020,16:39,128.67,128.71,128.67,128.71, 800
01/07/2020,16:40,128.72,128.76,128.72,128.73, 1217
01/07/2020,16:41,128.74,128.76,128.74,128.76, 1000
01/07/2020,16:42,128.76,128.81,128.73,128.79, 7866
01/07/2020,16:43,128.78,128.82,128.78,128.81, 655
01/07/2020,16:44,128.83,128.86,128.82,128.84, 1783
01/07/2020,16:45,128.83,129.01,128.8,129, 62328
01/07/2020,16:46,128.94,129.04,128.94,129, 4172
01/07/2020,16:47,129.07,129.08,128.94,128.94, 5670
01/07/2020,16:48,128.95,128.95,128.93,128.94, 800
01/07/2020,16:49,128.9,128.9,128.86,128.88, 1000
01/07/2020,16:50,128.91,128.91,128.88,128.88, 426
01/07/2020,16:51,128.9,128.96,128.88,128.92, 3538
01/07/2020,16:52,128.92,128.97,128.9,128.94, 6580
01/07/2020,16:53,128.95,129,128.94,128.96, 5751
01/07/2020,16:54,128.95,128.95,128.9,128.9, 1708
01/07/2020,16:55,128.93,128.95,128.93,128.93, 300
01/07/2020,16:56,128.95,129,128.91,128.97, 2600
01/07/2020,16:57,129,129.05,128.94,128.96, 4105
01/07/2020,16:58,128.99,129.01,128.81,128.94, 32334
01/07/2020,16:59,128.96,129.02,128.88,128.92, 15641
01/07/2020,17:00,128.92,128.92,128.87,128.88, 1300
01/07/2020,17:01,128.87,128.93,128.8,128.9, 158769
01/07/2020,17:02,128.93,128.98,128.93,128.95, 1916
01/07/2020,17:03,128.96,129.08,128.96,129.08, 1525
01/07/2020,17:04,129.08,129.18,129.07,129.18, 950
01/07/2020,17:05,129.15,129.28,129.15,129.28, 7100
01/07/2020,17:06,129.28,129.28,129.19,129.19, 3312
01/07/2020,17:07,129.19,129.19,129,129, 5400
01/07/2020,17:08,129,129.03,128.99,128.99, 3024
01/07/2020,17:09,128.95,129.03,128.87,129.03, 7279
01/07/2020,17:10,129.06,129.16,129.05,129.16, 800
01/07/2020,17:11,129.16,129.16,129.08,129.15, 2000
01/07/2020,17:12,129.15,129.15,129.07,129.07, 2500
01/07/2020,17:13,129.08,129.16,129.08,129.1, 1800
01/07/2020,17:14,129.09,129.09,129.05,129.05, 547
01/07/2020,17:15,129.01,129.01,129.01,129.01, 100
01/07/2020,17:16,129.02,129.02,128.95,128.95, 20100
01/07/2020,17:17,128.99,129.13,128.99,129.1, 1726
01/07/2020,17:18,129.1,129.12,129.01,129.04, 2446
01/07/2020,17:19,129.06,129.09,129.02,129.03, 1586
01/07/2020,17:20,129.03,129.06,129.03,129.06, 400
01/07/2020,17:21,129.06,129.06,129.03,129.03, 608
01/07/2020,17:22,129.03,129.03,129.03,129.03, 100
01/07/2020,17:23,129.05,129.06,129.05,129.06, 200
01/07/2020,17:24,129.05,129.05,129,129.01, 1189
01/07/2020,17:25,128.95,128.99,128.95,128.99, 500
01/07/2020,17:26,129.08,129.11,129.08,129.09, 700
01/07/2020,17:27,129.1,129.1,128.99,128.99, 1800
01/07/2020,17:28,129.01,129.01,129.01,129.01, 261
01/07/2020,17:29,129.04,129.06,128.99,129.06, 1500
01/07/2020,17:30,129.03,129.05,129.03,129.03, 486
01/07/2020,17:31,129.03,129.03,128.98,128.98, 991
01/07/2020,17:32,128.97,128.97,128.9,128.9, 400
01/07/2020,17:33,128.87,128.93,128.87,128.93, 701
01/07/2020,17:34,128.93,128.93,128.91,128.93, 500
01/07/2020,17:35,128.91,128.92,128.89,128.92, 400
01/07/2020,17:36,128.94,128.94,128.94,128.94, 300
01/07/2020,17:36,128.94,128.94,128.94,128.94, 100
01/07/2020,17:38,128.93,128.94,128.88,128.88, 400
01/07/2020,17:39,128.88,128.88,128.88,128.88, 633
01/07/2020,17:40,128.88,128.9,128.88,128.88, 500
01/07/2020,17:41,128.9,128.9,128.9,128.9, 100
01/07/2020,17:42,128.9,128.92,128.9,128.92, 400
01/07/2020,17:43,128.93,128.93,128.93,128.93, 200
01/07/2020,17:44,128.96,128.96,128.93,128.94, 1619
01/07/2020,17:45,128.93,128.95,128.93,128.95, 1000
01/07/2020,17:46,128.92,128.92,128.85,128.88, 1641
01/07/2020,17:47,128.9,128.92,128.88,128.88, 2800
01/07/2020,17:48,128.85,128.85,128.77,128.77, 1300
01/07/2020,17:49,128.77,128.79,128.71,128.71, 907
01/07/2020,17:52,128.64,128.64,128.62,128.62, 200
01/07/2020,17:53,128.64,128.67,128.64,128.65, 822
01/07/2020,17:54,128.69,128.75,128.69,128.75, 500
01/07/2020,17:55,128.72,128.72,128.65,128.65, 746
01/07/2020,17:56,128.65,128.66,128.64,128.65, 750
01/07/2020,17:57,128.67,128.71,128.67,128.71, 400
01/07/2020,17:58,128.66,128.68,128.66,128.67, 925
01/07/2020,17:59,128.64,128.64,128.64,128.64, 251
01/07/2020,18:00,128.66,128.66,128.61,128.61, 420
01/07/2020,18:01,128.61,128.61,128.56,128.58, 1000
01/07/2020,18:03,128.57,128.57,128.57,128.57, 100
01/07/2020,18:04,128.59,128.59,128.59,128.59, 100
01/07/2020,18:05,128.58,128.6,128.58,128.6, 650
01/07/2020,18:06,128.61,128.61,128.6,128.6, 925
01/07/2020,18:07,128.66,128.66,128.62,128.65, 330
01/07/2020,18:08,128.7,128.71,128.7,128.71, 273
01/07/2020,18:09,128.72,128.75,128.72,128.74, 709
01/07/2020,18:10,128.73,128.73,128.7,128.71, 931
01/07/2020,18:11,128.74,128.74,128.65,128.65, 1900
01/07/2020,18:13,128.65,128.65,128.65,128.65, 300
01/07/2020,18:14,128.67,128.67,128.66,128.66, 383
01/07/2020,18:15,128.67,128.67,128.66,128.66, 514
01/07/2020,18:16,128.64,128.67,128.64,128.67, 200
01/07/2020,18:17,128.68,128.68,128.65,128.65, 700
01/07/2020,18:18,128.67,128.67,128.67,128.67, 100
01/07/2020,18:19,128.69,128.69,128.69,128.69, 200
01/07/2020,18:20,128.69,128.7,128.69,128.7, 600
01/07/2020,18:22,128.7,128.7,128.68,128.68, 400
01/07/2020,18:23,128.7,128.7,128.7,128.7, 100
01/07/2020,18:24,128.7,128.7,128.69,128.69, 1326
01/07/2020,18:25,128.71,128.74,128.69,128.7, 2049
01/07/2020,18:26,128.7,128.71,128.66,128.67, 2500
01/07/2020,18:27,128.68,128.69,128.68,128.69, 814
01/07/2020,18:28,128.69,128.7,128.69,128.7, 200
01/07/2020,18:29,128.7,128.75,128.7,128.75, 2101
01/07/2020,18:30,128.75,128.77,128.66,128.67, 3710
01/07/2020,18:31,128.66,128.71,128.65,128.71, 1100
01/07/2020,18:32,128.65,128.65,128.65,128.65, 307
01/07/2020,18:33,128.63,128.63,128.63,128.63, 100
01/07/2020,18:34,128.63,128.68,128.63,128.68, 2083
01/07/2020,18:35,128.63,128.63,128.62,128.62, 910
01/07/2020,18:36,128.6,128.64,128.6,128.64, 800
01/07/2020,18:37,128.69,128.69,128.68,128.68, 200
01/07/2020,18:38,128.7,128.7,128.64,128.64, 535
01/07/2020,18:39,128.67,128.67,128.65,128.65, 200
01/07/2020,18:40,128.65,128.67,128.65,128.67, 300
01/07/2020,18:41,128.67,128.67,128.65,128.65, 201
01/07/2020,18:42,128.64,128.67,128.64,128.67, 1000
01/07/2020,18:43,128.66,128.67,128.66,128.66, 518
01/07/2020,18:44,128.68,128.71,128.68,128.7, 1600
01/07/2020,18:45,128.74,128.76,128.74,128.75, 501
01/07/2020,18:46,128.71,128.71,128.71,128.71, 4350
01/07/2020,18:47,128.71,128.74,128.71,128.74, 1212
01/07/2020,18:48,128.72,128.72,128.68,128.69, 800
01/07/2020,18:49,128.68,128.68,128.68,128.68, 300
01/07/2020,18:50,128.68,128.68,128.64,128.64, 39599
01/07/2020,18:51,128.65,128.65,128.64,128.64, 914
01/07/2020,18:52,128.65,128.66,128.63,128.66, 1939
01/07/2020,18:54,128.68,128.68,128.67,128.68, 1300
01/07/2020,18:55,128.66,128.66,128.62,128.62, 1440
01/07/2020,18:56,128.61,128.69,128.61,128.69, 1200
01/07/2020,18:57,128.73,128.75,128.67,128.67, 6700
01/07/2020,18:58,128.67,128.7,128.67,128.7, 6819
01/07/2020,18:59,128.71,128.73,128.69,128.69, 6248
01/07/2020,19:00,128.72,128.72,128.69,128.7, 5268
01/07/2020,19:01,128.72,128.79,128.72,128.78, 1893
01/07/2020,19:02,128.78,128.78,128.68,128.68, 101198
01/07/2020,19:03,128.68,128.71,128.68,128.7, 1000
01/07/2020,19:04,128.69,128.72,128.69,128.72, 209
01/07/2020,19:05,128.7,128.82,128.7,128.81, 52173
01/07/2020,19:06,128.85,128.9,128.84,128.9, 900
01/07/2020,19:07,128.87,128.91,128.87,128.91, 800
01/07/2020,19:08,128.95,128.97,128.92,128.97, 500
01/07/2020,19:09,128.97,129,128.95,129, 300
01/07/2020,19:10,128.98,129.03,128.98,129.02, 2000
01/07/2020,19:11,129.1,129.1,129.02,129.04, 1017
01/07/2020,19:12,129.03,129.03,129.02,129.02, 409
01/07/2020,19:13,129.02,129.02,129.01,129.01, 300
01/07/2020,19:14,129.06,129.06,129,129, 300
01/07/2020,19:15,129.03,129.08,129.03,129.08, 300
01/07/2020,19:16,129.04,129.04,129.02,129.02, 300
01/07/2020,19:17,129.03,129.04,129.03,129.04, 200
01/07/2020,19:18,129.04,129.07,129.04,129.07, 666
01/07/2020,19:19,129.08,129.08,129.02,129.05, 1382
01/07/2020,19:20,129.05,129.09,129.05,129.06, 400
01/07/2020,19:22,129.11,129.11,129.11,129.11, 200
01/07/2020,19:23,129.14,129.14,129.1,129.11, 1016
01/07/2020,19:24,129.12,129.12,129.1,129.1, 300
01/07/2020,19:25,129.13,129.13,129.1,129.1, 200
01/07/2020,19:26,129.1,129.1,129.06,129.06, 2608
01/07/2020,19:27,129.07,129.07,129.07,129.07, 100
01/07/2020,19:28,129.08,129.1,129.07,129.07, 3076
01/07/2020,19:29,129.09,129.11,129.07,129.07, 3350
01/07/2020,19:30,129.06,129.06,129.05,129.05, 1098
01/07/2020,19:31,128.99,128.99,128.99,128.99, 100
01/07/2020,19:32,128.99,128.99,128.97,128.97, 400
01/07/2020,19:33,129,129,128.97,128.97, 635
01/07/2020,19:34,128.98,128.98,128.98,128.98, 100
01/07/2020,19:35,129.01,129.03,129.01,129.01, 911
01/07/2020,19:36,129.05,129.05,128.99,128.99, 901
01/07/2020,19:37,128.99,128.99,128.99,128.99, 100
01/07/2020,19:38,128.99,128.99,128.97,128.97, 501
01/07/2020,19:39,128.98,128.99,128.98,128.99, 300
01/07/2020,19:40,128.98,128.98,128.96,128.96, 416
01/07/2020,19:41,128.97,128.97,128.97,128.97, 100
01/07/2020,19:42,128.98,128.98,128.96,128.96, 2561
01/07/2020,19:43,129,129.02,128.99,129, 700
01/07/2020,19:44,129,129,128.96,128.99, 900
01/07/2020,19:45,128.99,128.99,128.94,128.96, 809
01/07/2020,19:46,128.97,129.01,128.97,129.01, 500
01/07/2020,19:47,129.01,129.03,129.01,129.01, 926
01/07/2020,19:48,129,129.02,129,129.02, 300
01/07/2020,19:49,129.01,129.01,129,129, 380
01/07/2020,19:50,129.01,129.03,129.01,129.03, 500
01/07/2020,19:51,129.03,129.05,129.02,129.03, 2880
01/07/2020,19:52,129.03,129.03,128.94,128.94, 2101
01/07/2020,19:53,128.94,128.95,128.94,128.95, 204
01/07/2020,19:54,128.98,128.98,128.96,128.98, 500
01/07/2020,19:55,129.03,129.05,129.03,129.04, 601
01/07/2020,19:56,129.04,129.04,129.03,129.03, 255
01/07/2020,19:57,129.07,129.07,129.03,129.06, 1100
01/07/2020,19:59,129.08,129.1,129.06,129.08, 3191
01/07/2020,20:00,129.09,129.09,129.09,129.09, 100
01/07/2020,20:01,129.07,129.07,129.02,129.02, 1222
01/07/2020,20:02,129.03,129.05,129.03,129.05, 500
01/07/2020,20:03,129.04,129.05,129.01,129.01, 2066
01/07/2020,20:04,129.01,129.02,129,129, 800
01/07/2020,20:05,129.02,129.02,128.99,128.99, 1000
01/07/2020,20:06,128.99,129.08,128.98,129.06, 4310
01/07/2020,20:07,129.04,129.04,129.03,129.03, 200
01/07/2020,20:08,129.02,129.03,129.01,129.01, 1190
01/07/2020,20:09,129.01,129.04,129.01,129.03, 2860
01/07/2020,20:10,129.04,129.05,129.04,129.05, 1700
01/07/2020,20:11,129.06,129.06,129.04,129.05, 1197
01/07/2020,20:12,129.04,129.04,129.01,129.02, 700
01/07/2020,20:13,129.01,129.01,129,129, 407
01/07/2020,20:14,129,129,128.98,128.98, 2225
01/07/2020,20:15,129,129,128.98,128.98, 999
01/07/2020,20:16,128.96,128.98,128.93,128.97, 1900
01/07/2020,20:17,128.96,128.96,128.92,128.92, 609
01/07/2020,20:18,128.91,128.92,128.87,128.9, 2618
01/07/2020,20:19,128.92,128.93,128.9,128.93, 3429
01/07/2020,20:20,128.94,128.99,128.94,128.99, 1039
01/07/2020,20:21,128.98,128.99,128.98,128.98, 886
01/07/2020,20:22,128.97,128.97,128.93,128.93, 500
01/07/2020,20:23,128.94,128.96,128.94,128.95, 1398
01/07/2020,20:24,128.94,128.94,128.94,128.94, 718
01/07/2020,20:25,128.94,128.94,128.91,128.92, 910
01/07/2020,20:26,128.92,128.92,128.91,128.92, 702
01/07/2020,20:27,128.92,128.94,128.92,128.92, 1264
01/07/2020,20:28,128.93,128.93,128.9,128.9, 400
01/07/2020,20:29,128.9,128.92,128.9,128.92, 907
01/07/2020,20:30,128.91,128.91,128.89,128.89, 602
01/07/2020,20:31,128.87,128.87,128.86,128.86, 901
01/07/2020,20:32,128.87,128.89,128.87,128.89, 1204
01/07/2020,20:33,128.88,128.91,128.88,128.91, 1712
01/07/2020,20:34,128.92,128.93,128.92,128.92, 1077
01/07/2020,20:35,128.93,128.94,128.91,128.91, 500
01/07/2020,20:36,128.91,128.91,128.87,128.87, 1246
01/07/2020,20:37,128.87,128.88,128.87,128.87, 800
01/07/2020,20:38,128.83,128.84,128.77,128.79, 1210
01/07/2020,20:39,128.78,128.8,128.77,128.77, 400
01/07/2020,20:40,128.78,128.78,128.74,128.74, 600
01/07/2020,20:41,128.75,128.76,128.75,128.75, 1661
01/07/2020,20:42,128.76,128.79,128.76,128.79, 2305
01/07/2020,20:43,128.79,128.79,128.77,128.78, 982
01/07/2020,20:44,128.77,128.77,128.74,128.76, 2605
01/07/2020,20:45,128.77,128.77,128.73,128.75, 906
01/07/2020,20:46,128.75,128.75,128.73,128.74, 500
01/07/2020,20:47,128.73,128.73,128.72,128.72, 518
01/07/2020,20:48,128.72,128.74,128.72,128.74, 818
01/07/2020,20:49,128.74,128.74,128.72,128.73, 1424
01/07/2020,20:50,128.73,128.74,128.73,128.74, 800
01/07/2020,20:51,128.76,128.85,128.76,128.81, 3476
01/07/2020,20:52,128.81,128.81,128.78,128.78, 944
01/07/2020,20:53,128.77,128.78,128.77,128.78, 1300
01/07/2020,20:54,128.79,128.79,128.78,128.78, 1971
01/07/2020,20:55,128.79,128.85,128.77,128.85, 5062
01/07/2020,20:56,128.86,128.86,128.79,128.81, 1627
01/07/2020,20:57,128.83,128.88,128.63,128.79, 18690
01/07/2020,20:58,128.79,128.8,128.76,128.76, 1656
01/07/2020,20:59,128.76,128.78,128.75,128.78, 4448
01/07/2020,21:00,128.78,128.83,128.76,128.79, 2600
01/07/2020,21:01,128.78,128.81,128.77,128.81, 2026
01/07/2020,21:02,128.82,128.82,128.78,128.81, 6389
01/07/2020,21:03,128.81,128.82,128.8,128.8, 1106
01/07/2020,21:04,128.8,128.8,128.78,128.78, 1785
01/07/2020,21:05,128.77,128.78,128.68,128.68, 3196
01/07/2020,21:06,128.67,128.7,128.65,128.65, 2367
01/07/2020,21:07,128.65,128.67,128.63,128.65, 1274
01/07/2020,21:08,128.63,128.64,128.58,128.62, 1306
01/07/2020,21:09,128.64,128.67,128.64,128.67, 1409
01/07/2020,21:10,128.67,128.69,128.67,128.68, 1100
01/07/2020,21:11,128.67,128.68,128.66,128.67, 1001
01/07/2020,21:12,128.67,128.71,128.67,128.71, 1198
01/07/2020,21:13,128.7,128.71,128.68,128.71, 500
01/07/2020,21:14,128.71,128.75,128.71,128.75, 2712
01/07/2020,21:15,128.76,128.76,128.73,128.75, 2044
01/07/2020,21:16,128.72,128.72,128.7,128.7, 1061
01/07/2020,21:17,128.7,128.7,128.68,128.7, 1516
01/07/2020,21:18,128.71,128.76,128.71,128.75, 1683
01/07/2020,21:19,128.74,128.76,128.74,128.75, 2539
01/07/2020,21:20,128.75,128.75,128.74,128.75, 300
01/07/2020,21:21,128.74,128.74,128.72,128.74, 9907
01/07/2020,21:22,128.75,128.76,128.74,128.76, 3239
01/07/2020,21:23,128.76,128.84,128.76,128.84, 1980
01/07/2020,21:24,128.85,128.86,128.85,128.86, 300
01/07/2020,21:25,128.85,128.86,128.83,128.85, 3950
01/07/2020,21:26,128.85,128.87,128.85,128.86, 1042
01/07/2020,21:27,128.86,128.91,128.86,128.88, 2469
01/07/2020,21:28,128.91,128.97,128.91,128.97, 1028
01/07/2020,21:29,128.95,128.95,128.87,128.87, 3558
01/07/2020,21:30,128.86,128.86,128.85,128.85, 1250
01/07/2020,21:31,128.86,128.86,128.83,128.84, 800
01/07/2020,21:32,128.83,128.83,128.75,128.75, 2115
01/07/2020,21:33,128.74,128.79,128.74,128.76, 800
01/07/2020,21:34,128.76,128.76,128.74,128.74, 1085
01/07/2020,21:35,128.72,128.74,128.69,128.69, 4260
01/07/2020,21:36,128.69,128.69,128.64,128.65, 1600
01/07/2020,21:37,128.66,128.67,128.61,128.61, 1400
01/07/2020,21:38,128.61,128.62,128.57,128.57, 1800
01/07/2020,21:39,128.57,128.57,128.55,128.57, 2100
01/07/2020,21:40,128.56,128.57,128.52,128.52, 2081
01/07/2020,21:41,128.51,128.56,128.51,128.56, 2820
01/07/2020,21:42,128.55,128.57,128.55,128.56, 1936
01/07/2020,21:43,128.56,128.61,128.56,128.6, 2713
01/07/2020,21:44,128.61,128.61,128.56,128.56, 3257
01/07/2020,21:45,128.58,128.65,128.58,128.65, 3205
01/07/2020,21:46,128.64,128.66,128.53,128.53, 5922
01/07/2020,21:47,128.53,128.53,128.48,128.48, 4251
01/07/2020,21:48,128.47,128.5,128.47,128.48, 3046
01/07/2020,21:49,128.49,128.5,128.48,128.48, 2220
01/07/2020,21:50,128.48,128.49,128.47,128.47, 2323
01/07/2020,21:51,128.47,128.48,128.32,128.32, 9530
01/07/2020,21:52,128.33,128.35,128.32,128.33, 10536
01/07/2020,21:53,128.33,128.39,128.33,128.35, 6362
01/07/2020,21:54,128.34,128.39,128.32,128.32, 10286
01/07/2020,21:55,128.32,128.32,128.21,128.28, 13227
01/07/2020,21:56,128.31,128.33,128.21,128.22, 18754
01/07/2020,21:57,128.23,128.28,128.22,128.26, 13501
01/07/2020,21:58,128.28,128.29,128.21,128.25, 14397
01/07/2020,21:59,128.25,128.28,128.23,128.27, 8375
01/07/2020,22:00,128.27,128.29,128.08,128.08, 51489
01/07/2020,22:00,128.08,128.1,128.04,128.05, 16203
01/07/2020,22:07,128.08,128.08,128.08,128.08, 386221
01/08/2020,15:33,128.41,129.4,127.96,129.34, 8763
01/08/2020,15:34,128.05,128.64,128.05,128.6, 956
01/08/2020,15:35,128.66,128.72,128.5,128.5, 500
01/08/2020,15:36,129.1,129.16,128.84,128.91, 2333
01/08/2020,15:37,129.02,129.15,129.02,129.13, 1805
01/08/2020,15:38,129.09,129.31,129.08,129.21, 8214
01/08/2020,15:39,129.17,129.17,129.13,129.13, 2050
01/08/2020,15:40,129.06,129.11,128.88,128.91, 1022
01/08/2020,15:40,128.91,128.91,128.91,128.91, 100
01/08/2020,15:42,128.72,128.72,128.7,128.7, 443
01/08/2020,15:42,128.79,128.79,128.79,128.79, 626
01/08/2020,15:43,128.68,128.68,128.68,128.68, 100
01/08/2020,15:46,128.67,128.67,128.59,128.62, 400
01/08/2020,15:47,128.69,128.76,128.64,128.72, 1186
01/08/2020,15:48,128.77,128.9,128.76,128.9, 1900
01/08/2020,15:49,128.92,128.95,128.88,128.88, 2406
01/08/2020,15:50,128.88,128.88,128.75,128.76, 1515
01/08/2020,15:51,128.79,128.79,128.56,128.6, 1400
01/08/2020,15:52,128.59,128.64,128.59,128.64, 966
01/08/2020,15:53,128.59,128.74,128.59,128.74, 1945
01/08/2020,15:54,128.72,128.84,128.72,128.84, 1222
01/08/2020,15:55,128.82,128.85,128.74,128.75, 2100
01/08/2020,15:56,128.78,128.79,128.63,128.69, 2860
01/08/2020,15:57,128.63,128.66,128.59,128.63, 1854
01/08/2020,15:58,128.62,128.69,128.6,128.69, 1300
01/08/2020,15:59,128.72,128.75,128.67,128.67, 645
01/08/2020,16:00,128.67,128.67,128.61,128.62, 500
01/08/2020,16:01,128.58,128.58,128.51,128.55, 1038
01/08/2020,16:02,128.54,128.55,128.53,128.53, 967
01/08/2020,16:03,128.58,128.61,128.57,128.6, 1638
01/08/2020,16:04,128.55,128.55,128.54,128.54, 400
01/08/2020,16:05,128.49,128.54,128.49,128.54, 700
01/08/2020,16:06,128.5,128.54,128.5,128.54, 500
01/08/2020,16:07,128.5,128.5,128.5,128.5, 300
01/08/2020,16:08,128.49,128.53,128.47,128.53, 1338
01/08/2020,16:09,128.54,128.54,128.38,128.43, 1250
01/08/2020,16:10,128.43,128.46,128.43,128.45, 400
01/08/2020,16:11,128.48,128.57,128.48,128.51, 2744
01/08/2020,16:12,128.5,128.55,128.5,128.55, 400
01/08/2020,16:13,128.57,128.69,128.57,128.69, 1450
01/08/2020,16:14,128.72,128.78,128.66,128.66, 700
01/08/2020,16:15,128.65,128.68,128.61,128.61, 500
01/08/2020,16:16,128.56,128.56,128.56,128.56, 100
01/08/2020,16:17,128.5,128.52,128.5,128.52, 300
01/08/2020,16:18,128.47,128.55,128.47,128.55, 1637
01/08/2020,16:19,128.46,128.47,128.38,128.38, 700
01/08/2020,16:20,128.37,128.39,128.33,128.39, 400
01/08/2020,16:21,128.4,128.41,128.4,128.4, 835
01/08/2020,16:22,128.39,128.43,128.39,128.43, 200
01/08/2020,16:23,128.46,128.48,128.45,128.48, 600
01/08/2020,16:24,128.43,128.45,128.38,128.45, 1691
01/08/2020,16:25,128.44,128.46,128.4,128.4, 600
01/08/2020,16:26,128.41,128.48,128.41,128.48, 1042
01/08/2020,16:27,128.44,128.5,128.42,128.46, 1441
01/08/2020,16:28,128.43,128.45,128.43,128.45, 200
01/08/2020,16:29,128.43,128.43,128.29,128.35, 3867
01/08/2020,16:30,128.36,128.38,128.35,128.36, 871
01/08/2020,16:31,128.34,128.37,128.24,128.24, 2300
01/08/2020,16:32,128.21,128.33,128.21,128.33, 1723
01/08/2020,16:33,128.34,128.37,128.32,128.34, 700
01/08/2020,16:34,128.31,128.31,128.26,128.31, 1900
01/08/2020,16:35,128.3,128.31,128.24,128.24, 1233
01/08/2020,16:36,128.26,128.33,128.26,128.33, 3240
01/08/2020,16:37,128.36,128.36,128.36,128.36, 700
01/08/2020,16:38,128.33,128.35,128.31,128.32, 2035
01/08/2020,16:39,128.3,128.3,128.26,128.29, 1102
01/08/2020,16:40,128.29,128.29,128.2,128.22, 3287
01/08/2020,16:41,128.2,128.28,128.2,128.28, 1349
01/08/2020,16:42,128.32,128.32,128.26,128.29, 400
01/08/2020,16:43,128.26,128.26,128.21,128.21, 795
01/08/2020,16:44,128.17,128.24,128.17,128.23, 1005
01/08/2020,16:45,128.25,128.25,128.22,128.25, 438
01/08/2020,16:46,128.26,128.29,128.25,128.26, 1218
01/08/2020,16:47,128.27,128.32,128.24,128.24, 2322
01/08/2020,16:48,128.21,128.23,128.21,128.23, 900
01/08/2020,16:49,128.23,128.25,128.23,128.25, 600
01/08/2020,16:50,128.15,128.15,128.15,128.15, 100
01/08/2020,16:51,128.22,128.22,128.13,128.13, 1300
01/08/2020,16:52,128.11,128.11,128,128, 1300
01/08/2020,16:53,128,128,127.94,127.94, 900
01/08/2020,16:54,127.97,127.97,127.94,127.94, 1502
01/08/2020,16:55,127.92,127.96,127.85,127.93, 2400
01/08/2020,16:56,127.88,127.88,127.87,127.87, 200
01/08/2020,16:57,127.83,127.87,127.83,127.87, 2234
01/08/2020,16:58,127.84,127.93,127.84,127.93, 800
01/08/2020,16:59,127.96,127.99,127.85,127.89, 1712
01/08/2020,17:00,127.88,127.93,127.85,127.93, 923
01/08/2020,17:01,127.93,128.03,127.93,128.03, 620
01/08/2020,17:02,128.01,128.04,128.01,128.04, 437
01/08/2020,17:03,128.14,128.14,128.1,128.12, 600
01/08/2020,17:04,128.09,128.13,128.09,128.12, 1315
01/08/2020,17:05,128.08,128.08,128.07,128.08, 302
01/08/2020,17:06,128.05,128.07,128.05,128.05, 300
01/08/2020,17:07,128.02,128.02,127.98,127.98, 723
01/08/2020,17:08,127.97,128,127.95,127.95, 1752
01/08/2020,17:09,127.95,128.02,127.92,128.02, 1257
01/08/2020,17:10,127.99,128.16,127.99,128.15, 2800
01/08/2020,17:11,128.17,128.17,128.17,128.17, 300
01/08/2020,17:12,128.16,128.16,128.13,128.13, 500
01/08/2020,17:13,128.12,128.16,128.11,128.16, 520
01/08/2020,17:14,128.06,128.13,128.06,128.13, 600
01/08/2020,17:15,128.13,128.17,128.13,128.13, 2427
01/08/2020,17:16,128.12,128.2,128.12,128.2, 1225
01/08/2020,17:17,128.24,128.28,128.23,128.23, 925
01/08/2020,17:18,128.21,128.21,128.18,128.18, 400
01/08/2020,17:19,128.21,128.22,128.21,128.22, 456
01/08/2020,17:20,128.22,128.22,128.21,128.21, 314
01/08/2020,17:21,128.25,128.25,128.2,128.25, 1320
01/08/2020,17:22,128.25,128.32,128.25,128.32, 831
01/08/2020,17:23,128.28,128.3,128.26,128.27, 1100
01/08/2020,17:25,128.29,128.29,128.29,128.29, 423
01/08/2020,17:26,128.31,128.31,128.21,128.21, 600
01/08/2020,17:27,128.26,128.26,128.26,128.26, 190
01/08/2020,17:28,128.23,128.23,128.23,128.23, 500
01/08/2020,17:29,128.23,128.24,128.18,128.21, 2580
01/08/2020,17:30,128.28,128.55,128.28,128.54, 636
01/08/2020,17:31,128.57,128.57,128.36,128.39, 400
01/08/2020,17:32,128.42,128.42,128.4,128.4, 200
01/08/2020,17:33,128.27,128.35,128.27,128.35, 855
01/08/2020,17:34,128.28,128.35,128.23,128.35, 1500
01/08/2020,17:35,128.41,128.46,128.41,128.43, 2446
01/08/2020,17:36,128.46,128.48,128.46,128.48, 435
01/08/2020,17:37,128.45,128.51,128.44,128.51, 1882
01/08/2020,17:38,128.5,128.56,128.49,128.56, 1200
01/08/2020,17:39,128.7,128.7,128.67,128.67, 328
01/08/2020,17:40,128.69,128.74,128.65,128.74, 3496
01/08/2020,17:41,128.73,128.84,128.51,128.84, 14496
01/08/2020,17:42,128.9,128.91,128.9,128.91, 210
01/08/2020,17:43,128.88,129.04,128.88,129.03, 8423
01/08/2020,17:44,129,129.09,128.99,129.05, 6565
01/08/2020,17:45,129.01,129.11,129.01,129.04, 3998
01/08/2020,17:46,129.07,129.11,129.02,129.08, 51003
01/08/2020,17:47,129.07,129.09,129.06,129.06, 8948
01/08/2020,17:48,129.06,129.19,129.06,129.19, 5689
01/08/2020,17:49,129.19,129.19,129.19,129.19, 200
01/08/2020,17:50,129.19,129.24,129.15,129.17, 2032
01/08/2020,17:51,129.17,129.17,129.13,129.13, 200
01/08/2020,17:52,129.13,129.21,129.1,129.2, 3646
01/08/2020,17:53,129.25,129.25,129.25,129.25, 999
01/08/2020,17:54,129.26,129.3,129.26,129.29, 600
01/08/2020,17:55,129.28,129.31,129.25,129.31, 1548
01/08/2020,17:56,129.31,129.38,129.27,129.27, 5513
01/08/2020,17:57,129.24,129.24,129.19,129.22, 1010
01/08/2020,17:58,129.23,129.27,129.23,129.24, 429
01/08/2020,17:59,129.28,129.28,129.26,129.26, 200
01/08/2020,18:00,129.22,129.22,129.18,129.18, 919
01/08/2020,18:01,129.18,129.19,129.15,129.15, 5882
01/08/2020,18:02,129.14,129.15,129.12,129.12, 800
01/08/2020,18:03,129.11,129.12,129.08,129.1, 8932
01/08/2020,18:04,129.09,129.09,129.07,129.07, 606
01/08/2020,18:05,129.08,129.14,129.08,129.11, 4756
01/08/2020,18:06,129.1,129.11,129.06,129.1, 4000
01/08/2020,18:07,129.08,129.08,129.03,129.06, 1000
01/08/2020,18:08,129.05,129.07,129.04,129.05, 2729
01/08/2020,18:09,129.06,129.06,129.02,129.05, 1551
01/08/2020,18:10,129.05,129.05,129.02,129.02, 400
01/08/2020,18:11,129.04,129.06,129.04,129.06, 1388
01/08/2020,18:12,129.08,129.09,129.03,129.03, 7114
01/08/2020,18:13,129.05,129.05,128.91,128.92, 1739
01/08/2020,18:14,128.94,128.94,128.93,128.93, 631
01/08/2020,18:15,128.94,128.95,128.93,128.93, 600
01/08/2020,18:16,128.95,128.98,128.95,128.97, 740
01/08/2020,18:17,128.99,129,128.97,128.99, 782
01/08/2020,18:18,128.99,129.04,128.99,129.04, 518
01/08/2020,18:19,128.99,129.04,128.98,129.04, 999
01/08/2020,18:20,129.01,129.01,129.01,129.01, 100
01/08/2020,18:21,129.01,129.06,129.01,129.02, 1616
01/08/2020,18:22,129,129,128.94,128.94, 657
01/08/2020,18:23,128.95,129.01,128.95,129.01, 646
01/08/2020,18:24,129,129.01,128.99,129.01, 895
01/08/2020,18:25,129.04,129.06,129.04,129.06, 500
01/08/2020,18:26,129.05,129.06,129,129.03, 1000
01/08/2020,18:27,129.03,129.04,129.03,129.04, 626
01/08/2020,18:28,129,129,128.98,128.98, 439
01/08/2020,18:29,129.01,129.02,129,129.02, 1300
01/08/2020,18:30,128.97,128.97,128.97,128.97, 655
01/08/2020,18:31,129.03,129.05,129.02,129.05, 441
01/08/2020,18:32,129.05,129.05,129.05,129.05, 100
01/08/2020,18:33,129.02,129.02,129,129, 900
01/08/2020,18:34,129,129,128.99,128.99, 1527
01/08/2020,18:35,128.99,129,128.98,128.98, 700
01/08/2020,18:36,128.94,128.98,128.94,128.98, 1100
01/08/2020,18:37,128.98,129,128.98,129, 400
01/08/2020,18:38,128.98,128.98,128.95,128.95, 500
01/08/2020,18:39,128.95,129,128.95,129, 488
01/08/2020,18:41,129,129,128.98,129, 667
01/08/2020,18:42,129,129,129,129, 100
01/08/2020,18:44,128.97,128.97,128.94,128.94, 701
01/08/2020,18:45,128.96,129,128.96,129, 550
01/08/2020,18:46,129,129,129,129, 200
01/08/2020,18:47,129,129,128.88,128.88, 4348
01/08/2020,18:48,128.89,128.95,128.88,128.95, 18244
01/08/2020,18:49,128.92,128.95,128.82,128.82, 7521
01/08/2020,18:50,128.79,128.8,128.76,128.78, 3210
01/08/2020,18:51,128.74,128.75,128.59,128.65, 14857
01/08/2020,18:52,128.62,128.71,128.61,128.7, 11004
01/08/2020,18:53,128.71,128.71,128.61,128.64, 7812
01/08/2020,18:54,128.65,128.65,128.54,128.54, 3793
01/08/2020,18:55,128.54,128.65,128.47,128.62, 5722
01/08/2020,18:56,128.66,128.68,128.65,128.65, 700
01/08/2020,18:57,128.68,128.68,128.68,128.68, 400
01/08/2020,18:58,128.69,128.69,128.68,128.68, 200
01/08/2020,18:58,128.71,128.71,128.71,128.71, 202
01/08/2020,18:59,128.71,128.71,128.71,128.71, 204
01/08/2020,19:01,128.63,128.65,128.61,128.63, 1225
01/08/2020,19:01,128.61,128.65,128.61,128.65, 400
01/08/2020,19:03,128.61,128.68,128.61,128.67, 1750
01/08/2020,19:04,128.67,128.71,128.67,128.71, 900
01/08/2020,19:05,128.71,128.71,128.67,128.67, 987
01/08/2020,19:06,128.66,128.66,128.66,128.66, 100
01/08/2020,19:07,128.6,128.61,128.59,128.59, 500
01/08/2020,19:08,128.58,128.58,128.55,128.55, 900
01/08/2020,19:09,128.56,128.56,128.56,128.56, 300
01/08/2020,19:10,128.58,128.6,128.58,128.6, 300
01/08/2020,19:11,128.59,128.61,128.59,128.61, 5790
01/08/2020,19:11,128.59,128.59,128.59,128.59, 100
01/08/2020,19:13,128.6,128.62,128.6,128.62, 200
01/08/2020,19:14,128.62,128.68,128.62,128.67, 1078
01/08/2020,19:15,128.71,128.71,128.71,128.71, 100
01/08/2020,19:16,128.69,128.69,128.68,128.68, 1421
01/08/2020,19:17,128.66,128.68,128.66,128.67, 599
01/08/2020,19:18,128.7,128.7,128.69,128.69, 800
01/08/2020,19:19,128.68,128.71,128.62,128.62, 3320
01/08/2020,19:20,128.62,128.68,128.61,128.67, 1130
01/08/2020,19:21,128.65,128.68,128.65,128.66, 800
01/08/2020,19:22,128.64,128.65,128.63,128.65, 901
01/08/2020,19:23,128.63,128.65,128.63,128.63, 604
01/08/2020,19:24,128.6,128.61,128.6,128.61, 500
01/08/2020,19:25,128.58,128.58,128.58,128.58, 100
01/08/2020,19:26,128.55,128.58,128.55,128.58, 410
01/08/2020,19:27,128.55,128.59,128.52,128.52, 495
01/08/2020,19:28,128.52,128.56,128.47,128.54, 1200
01/08/2020,19:29,128.56,128.56,128.54,128.56, 300
01/08/2020,19:30,128.55,128.55,128.52,128.53, 2800
01/08/2020,19:31,128.51,128.51,128.47,128.48, 1801
01/08/2020,19:32,128.47,128.48,128.47,128.48, 400
01/08/2020,19:33,128.51,128.51,128.51,128.51, 200
01/08/2020,19:34,128.5,128.51,128.5,128.5, 1900
01/08/2020,19:35,128.5,128.51,128.5,128.51, 1700
01/08/2020,19:36,128.51,128.56,128.51,128.56, 583
01/08/2020,19:36,128.54,128.54,128.54,128.54, 100
01/08/2020,19:38,128.52,128.52,128.46,128.46, 1010
01/08/2020,19:39,128.45,128.45,128.45,128.45, 500
01/08/2020,19:40,128.47,128.51,128.47,128.51, 901
01/08/2020,19:41,128.51,128.53,128.5,128.5, 1400
01/08/2020,19:42,128.49,128.5,128.46,128.46, 2000
01/08/2020,19:44,128.46,128.47,128.46,128.47, 250
01/08/2020,19:44,128.47,128.47,128.47,128.47, 100
01/08/2020,19:46,128.45,128.46,128.44,128.46, 1242
01/08/2020,19:47,128.43,128.45,128.43,128.45, 1800
01/08/2020,19:48,128.47,128.51,128.47,128.51, 500
01/08/2020,19:49,128.48,128.48,128.47,128.47, 300
01/08/2020,19:50,128.45,128.45,128.45,128.45, 610
01/08/2020,19:51,128.41,128.41,128.39,128.4, 300
01/08/2020,19:52,128.38,128.38,128.38,128.38, 100
01/08/2020,19:53,128.36,128.36,128.35,128.35, 309
01/08/2020,19:54,128.35,128.36,128.35,128.36, 200
01/08/2020,19:55,128.34,128.34,128.31,128.32, 1300
01/08/2020,19:56,128.32,128.32,128.32,128.32, 201
01/08/2020,19:58,128.3,128.31,128.28,128.29, 400
01/08/2020,19:59,128.3,128.3,128.3,128.3, 100
01/08/2020,20:00,128.28,128.28,128.28,128.28, 486
01/08/2020,20:01,128.28,128.33,128.28,128.33, 2205
01/08/2020,20:02,128.33,128.4,128.32,128.38, 2000
01/08/2020,20:03,128.42,128.44,128.4,128.44, 2046
01/08/2020,20:04,128.42,128.45,128.4,128.4, 2537
01/08/2020,20:05,128.4,128.43,128.4,128.42, 775
01/08/2020,20:06,128.42,128.49,128.42,128.47, 3900
01/08/2020,20:07,128.44,128.47,128.44,128.47, 200
01/08/2020,20:08,128.48,128.48,128.48,128.48, 100
01/08/2020,20:09,128.47,128.5,128.47,128.5, 200
01/08/2020,20:10,128.51,128.53,128.49,128.52, 1200
01/08/2020,20:11,128.53,128.54,128.53,128.54, 700
01/08/2020,20:12,128.54,128.54,128.54,128.54, 100
01/08/2020,20:13,128.56,128.6,128.56,128.6, 713
01/08/2020,20:14,128.62,128.66,128.62,128.66, 300
01/08/2020,20:15,128.68,128.68,128.58,128.58, 6995
01/08/2020,20:16,128.53,128.53,128.51,128.53, 300
01/08/2020,20:17,128.53,128.56,128.51,128.56, 1323
01/08/2020,20:18,128.58,128.63,128.58,128.63, 600
01/08/2020,20:19,128.63,128.66,128.63,128.63, 1700
01/08/2020,20:20,128.59,128.59,128.59,128.59, 327
01/08/2020,20:21,128.61,128.65,128.61,128.65, 700
01/08/2020,20:22,128.63,128.63,128.6,128.61, 500
01/08/2020,20:22,128.62,128.62,128.62,128.62, 100
01/08/2020,20:24,128.63,128.67,128.63,128.63, 600
01/08/2020,20:25,128.7,128.7,128.7,128.7, 100
01/08/2020,20:26,128.69,128.76,128.69,128.76, 200
01/08/2020,20:27,128.77,128.77,128.74,128.76, 1300
01/08/2020,20:28,128.76,128.77,128.76,128.77, 1858
01/08/2020,20:29,128.73,128.81,128.73,128.81, 1400
01/08/2020,20:30,128.81,128.86,128.81,128.84, 1424
01/08/2020,20:31,128.83,128.83,128.8,128.82, 1600
01/08/2020,20:32,128.8,128.8,128.76,128.76, 605
01/08/2020,20:33,128.78,128.78,128.78,128.78, 200
01/08/2020,20:34,128.77,128.78,128.73,128.78, 1200
01/08/2020,20:35,128.74,128.75,128.74,128.74, 1100
01/08/2020,20:36,128.79,128.79,128.75,128.76, 1528
01/08/2020,20:37,128.81,128.81,128.79,128.8, 680
01/08/2020,20:38,128.79,128.81,128.76,128.79, 2553
01/08/2020,20:39,128.79,128.83,128.79,128.82, 700
01/08/2020,20:40,128.82,128.84,128.8,128.83, 1563
01/08/2020,20:41,128.85,128.85,128.8,128.83, 6307
01/08/2020,20:42,128.84,128.84,128.79,128.8, 5577
01/08/2020,20:43,128.8,128.83,128.8,128.83, 2300
01/08/2020,20:44,128.82,128.82,128.79,128.79, 1101
01/08/2020,20:45,128.8,128.8,128.8,128.8, 300
01/08/2020,20:46,128.8,128.8,128.74,128.74, 1766
01/08/2020,20:47,128.75,128.77,128.75,128.77, 461
01/08/2020,20:48,128.77,128.86,128.75,128.86, 2803
01/08/2020,20:49,128.84,128.84,128.8,128.8, 400
01/08/2020,20:50,128.8,128.83,128.8,128.81, 1875
01/08/2020,20:51,128.82,128.84,128.77,128.77, 2000
01/08/2020,20:52,128.82,128.82,128.8,128.8, 556
01/08/2020,20:53,128.79,128.79,128.76,128.76, 900
01/08/2020,20:54,128.79,128.83,128.79,128.8, 1626
01/08/2020,20:55,128.8,128.83,128.79,128.82, 1000
01/08/2020,20:56,128.83,128.83,128.82,128.83, 1400
01/08/2020,20:57,128.82,128.84,128.8,128.81, 3593
01/08/2020,20:58,128.82,128.83,128.81,128.81, 1800
01/08/2020,20:59,128.82,128.89,128.82,128.85, 3249
01/08/2020,21:00,128.88,128.88,128.88,128.88, 200
01/08/2020,21:01,128.88,128.89,128.87,128.88, 1767
01/08/2020,21:02,128.87,128.9,128.87,128.9, 1900
01/08/2020,21:03,128.9,128.91,128.84,128.84, 2561
01/08/2020,21:04,128.85,128.85,128.8,128.81, 1644
01/08/2020,21:05,128.81,128.85,128.8,128.85, 2866
01/08/2020,21:06,128.84,128.88,128.84,128.85, 1300
01/08/2020,21:07,128.84,128.86,128.84,128.84, 3345
01/08/2020,21:08,128.85,128.88,128.83,128.83, 3000
01/08/2020,21:09,128.84,128.86,128.84,128.85, 1800
01/08/2020,21:10,128.84,128.86,128.83,128.83, 1300
01/08/2020,21:11,128.83,128.84,128.8,128.8, 5508
01/08/2020,21:12,128.8,128.81,128.79,128.81, 2623
01/08/2020,21:13,128.81,128.83,128.8,128.83, 1510
01/08/2020,21:14,128.84,128.88,128.8,128.81, 53701
01/08/2020,21:15,128.8,128.8,128.77,128.77, 3502
01/08/2020,21:16,128.7,128.74,128.7,128.74, 700
01/08/2020,21:17,128.76,128.8,128.76,128.76, 7735
01/08/2020,21:18,128.78,128.86,128.78,128.83, 9446
01/08/2020,21:19,128.83,128.83,128.8,128.82, 1705
01/08/2020,21:20,128.82,128.87,128.82,128.84, 2999
01/08/2020,21:21,128.84,128.87,128.83,128.83, 3196
01/08/2020,21:22,128.84,128.85,128.81,128.83, 3604
01/08/2020,21:23,128.83,128.88,128.8,128.88, 3100
01/08/2020,21:24,128.93,129,128.91,129, 500
01/08/2020,21:25,129,129.04,128.98,129, 2000
01/08/2020,21:26,129,129,128.96,128.97, 1220
01/08/2020,21:27,128.98,128.98,128.94,128.94, 1635
01/08/2020,21:28,128.99,128.99,128.97,128.97, 500
01/08/2020,21:29,128.97,128.97,128.94,128.96, 1100
01/08/2020,21:30,128.96,128.96,128.95,128.95, 400
01/08/2020,21:31,128.93,128.93,128.84,128.84, 6335
01/08/2020,21:32,128.87,128.9,128.84,128.89, 2373
01/08/2020,21:33,128.88,128.89,128.86,128.86, 640
01/08/2020,21:34,128.86,128.86,128.79,128.79, 1403
01/08/2020,21:35,128.81,128.82,128.78,128.78, 1469
01/08/2020,21:36,128.78,128.82,128.76,128.82, 4502
01/08/2020,21:37,128.84,128.88,128.84,128.87, 1000
01/08/2020,21:38,128.86,128.86,128.84,128.86, 1901
01/08/2020,21:39,128.86,128.88,128.85,128.85, 2572
01/08/2020,21:40,128.85,128.85,128.8,128.8, 2043
01/08/2020,21:41,128.77,128.78,128.7,128.7, 4284
01/08/2020,21:42,128.72,128.75,128.72,128.75, 4616
01/08/2020,21:43,128.75,128.81,128.74,128.79, 5692
01/08/2020,21:44,128.79,128.79,128.76,128.78, 1000
01/08/2020,21:45,128.79,128.8,128.77,128.78, 1300
01/08/2020,21:46,128.79,128.79,128.76,128.76, 2614
01/08/2020,21:47,128.77,128.79,128.76,128.79, 3980
01/08/2020,21:48,128.78,128.78,128.6,128.7, 8381
01/08/2020,21:49,128.7,128.71,128.58,128.58, 3673
01/08/2020,21:50,128.55,128.55,128.48,128.49, 4217
01/08/2020,21:51,128.46,128.47,128.41,128.46, 2471
01/08/2020,21:52,128.45,128.48,128.41,128.48, 6695
01/08/2020,21:53,128.47,128.54,128.47,128.5, 5458
01/08/2020,21:54,128.5,128.52,128.4,128.42, 6468
01/08/2020,21:55,128.44,128.51,128.41,128.51, 6244
01/08/2020,21:56,128.5,128.53,128.49,128.5, 10393
01/08/2020,21:57,128.52,128.55,128.39,128.39, 12545
01/08/2020,21:58,128.36,128.38,128.31,128.33, 18092
01/08/2020,21:59,128.31,128.4,128.31,128.34, 16847
01/08/2020,22:00,128.32,128.45,128.27,128.39, 24118
01/08/2020,22:01,128.39,128.41,128.3,128.41, 7781
01/08/2020,22:06,128.41,128.41,128.41,128.41, 115647
01/09/2020,15:31,128.71,129.06,128.64,129.06, 9922
01/09/2020,15:32,128.88,129.03,128.88,129.03, 680
01/09/2020,15:33,128.82,128.87,128.82,128.87, 293
01/09/2020,15:35,128.81,128.86,128.74,128.83, 5924
01/09/2020,15:36,128.59,128.65,128.59,128.65, 248
01/09/2020,15:37,128.64,128.64,128.53,128.58, 1373
01/09/2020,15:39,128.75,128.75,128.75,128.75, 100
01/09/2020,15:39,128.85,128.85,128.85,128.85, 100
01/09/2020,15:41,128.8,128.8,128.8,128.8, 123
01/09/2020,15:42,128.93,128.94,128.88,128.89, 1400
01/09/2020,15:42,128.84,128.89,128.84,128.86, 800
01/09/2020,15:44,128.88,128.88,128.81,128.81, 600
01/09/2020,15:45,128.75,128.76,128.75,128.76, 200
01/09/2020,15:46,128.77,128.77,128.56,128.56, 810
01/09/2020,15:47,128.63,128.72,128.63,128.71, 1605
01/09/2020,15:48,128.63,128.67,128.62,128.64, 846
01/09/2020,15:49,128.58,128.66,128.53,128.63, 1400
01/09/2020,15:49,128.66,128.66,128.66,128.66, 100
01/09/2020,15:50,128.8,128.8,128.75,128.75, 200
01/09/2020,15:52,128.87,128.9,128.83,128.87, 1600
01/09/2020,15:53,128.9,128.92,128.9,128.92, 300
01/09/2020,15:54,128.98,128.98,128.91,128.91, 735
01/09/2020,15:55,128.95,128.98,128.95,128.98, 301
01/09/2020,15:56,128.95,128.95,128.94,128.94, 200
01/09/2020,15:57,128.91,128.91,128.87,128.91, 1909
01/09/2020,15:58,128.9,128.9,128.87,128.87, 500
01/09/2020,15:59,128.77,128.8,128.72,128.72, 1100
01/09/2020,16:00,128.68,128.7,128.64,128.67, 1300
01/09/2020,16:01,128.7,128.7,128.68,128.68, 300
01/09/2020,16:02,128.65,128.7,128.58,128.62, 2556
01/09/2020,16:03,128.57,128.6,128.56,128.6, 800
01/09/2020,16:04,128.5,128.6,128.5,128.6, 690
01/09/2020,16:05,128.51,128.64,128.51,128.64, 2122
01/09/2020,16:07,128.66,128.66,128.6,128.6, 324
01/09/2020,16:08,128.69,128.69,128.69,128.69, 1042
01/09/2020,16:09,128.68,128.72,128.67,128.72, 800
01/09/2020,16:11,128.78,128.8,128.78,128.8, 200
01/09/2020,16:12,128.86,128.89,128.86,128.89, 400
01/09/2020,16:12,128.83,128.83,128.8,128.81, 900
01/09/2020,16:15,128.81,128.9,128.81,128.9, 1494
01/09/2020,16:16,128.89,128.95,128.76,128.78, 33250
01/09/2020,16:17,128.75,128.88,128.75,128.84, 3865
01/09/2020,16:17,128.9,128.9,128.9,128.9, 200
01/09/2020,16:19,128.99,129.05,128.98,129.05, 700
01/09/2020,16:20,129,129.06,129,129, 12523
01/09/2020,16:21,129,129.04,129,129.04, 1417
01/09/2020,16:22,129.08,129.08,129.03,129.06, 1300
01/09/2020,16:23,129.09,129.09,128.87,128.87, 11975
01/09/2020,16:24,128.87,128.88,128.76,128.77, 4600
01/09/2020,16:26,128.75,128.75,128.75,128.75, 100
01/09/2020,16:28,128.79,128.8,128.79,128.8, 499
01/09/2020,16:28,128.82,128.82,128.82,128.82, 462
01/09/2020,16:30,128.95,129.01,128.95,129.01, 500
01/09/2020,16:31,128.96,128.98,128.95,128.98, 500
01/09/2020,16:32,128.98,129.03,128.96,128.96, 3099
01/09/2020,16:33,129,129,129,129, 100
01/09/2020,16:34,128.97,129.01,128.96,128.96, 529
01/09/2020,16:35,128.95,128.97,128.95,128.97, 200
01/09/2020,16:36,128.98,129.02,128.96,129, 3073
01/09/2020,16:37,129,129,128.89,128.95, 3823
01/09/2020,16:38,128.94,128.95,128.94,128.95, 400
01/09/2020,16:39,128.94,128.97,128.88,128.88, 3061
01/09/2020,16:40,128.93,129,128.93,128.97, 1201
01/09/2020,16:41,128.96,128.96,128.86,128.9, 2000
01/09/2020,16:42,128.87,128.93,128.86,128.93, 1200
01/09/2020,16:43,128.93,128.93,128.93,128.93, 100
01/09/2020,16:44,128.97,128.99,128.95,128.97, 811
01/09/2020,16:45,128.95,129.01,128.94,129.01, 6133
01/09/2020,16:46,129,129,128.98,129, 620
01/09/2020,16:47,128.98,129.01,128.95,128.97, 2756
01/09/2020,16:48,128.99,129,128.99,129, 1400
01/09/2020,16:49,129.01,129.02,128.95,128.95, 3163
01/09/2020,16:50,128.91,128.91,128.87,128.89, 1607
01/09/2020,16:51,128.89,129.01,128.89,129, 13140
01/09/2020,16:52,128.98,129.03,128.96,128.96, 3456
01/09/2020,16:53,128.97,129.01,128.97,129.01, 503
01/09/2020,16:54,129,129.01,128.92,128.96, 2899
01/09/2020,16:55,128.97,129.02,128.85,128.9, 11928
01/09/2020,16:56,128.88,128.94,128.88,128.94, 655
01/09/2020,16:57,129,129,128.86,128.86, 2036
01/09/2020,16:58,128.85,128.93,128.85,128.89, 2300
01/09/2020,16:58,128.9,128.97,128.9,128.97, 4729
01/09/2020,17:00,128.94,128.97,128.9,128.94, 50400
01/09/2020,17:01,128.94,129,128.92,129, 2225
01/09/2020,17:02,129,129.01,128.97,128.98, 2780
01/09/2020,17:02,128.97,128.97,128.97,128.97, 200
01/09/2020,17:04,129,129,128.92,128.92, 1228
01/09/2020,17:05,128.92,128.95,128.86,128.93, 2109
01/09/2020,17:06,128.93,128.95,128.93,128.95, 396
01/09/2020,17:07,128.96,128.96,128.94,128.96, 300
01/09/2020,17:08,128.95,128.95,128.9,128.92, 1801
01/09/2020,17:09,128.94,128.95,128.94,128.94, 2500
01/09/2020,17:10,128.95,128.95,128.87,128.9, 3549
01/09/2020,17:11,128.85,128.86,128.85,128.86, 1020
01/09/2020,17:12,128.86,128.89,128.86,128.89, 300
01/09/2020,17:13,128.9,128.9,128.88,128.89, 500
01/09/2020,17:14,128.89,128.91,128.86,128.86, 1007
01/09/2020,17:15,128.83,128.83,128.8,128.8, 1169
01/09/2020,17:16,128.8,128.82,128.8,128.81, 620
01/09/2020,17:17,128.83,128.83,128.81,128.81, 985
01/09/2020,17:18,128.8,128.93,128.8,128.93, 16481
01/09/2020,17:19,128.96,128.97,128.96,128.97, 225
01/09/2020,17:20,128.98,129.01,128.88,128.9, 5634
01/09/2020,17:21,128.88,128.91,128.88,128.9, 1961
01/09/2020,17:22,128.93,128.93,128.89,128.89, 200
01/09/2020,17:23,128.93,128.93,128.87,128.87, 2516
01/09/2020,17:24,128.87,128.89,128.86,128.86, 16701
01/09/2020,17:25,128.87,128.99,128.87,128.98, 8300
01/09/2020,17:26,128.99,129.03,128.97,128.99, 2241
01/09/2020,17:27,128.99,128.99,128.77,128.77, 2000
01/09/2020,17:28,128.77,128.79,128.75,128.79, 1631
01/09/2020,17:29,128.82,128.87,128.82,128.87, 600
01/09/2020,17:30,128.84,128.85,128.84,128.85, 200
01/09/2020,17:31,128.9,128.9,128.86,128.86, 789
01/09/2020,17:32,128.88,128.88,128.88,128.88, 100
01/09/2020,17:33,128.88,128.9,128.88,128.9, 600
01/09/2020,17:34,128.93,128.95,128.93,128.95, 300
01/09/2020,17:35,128.92,128.94,128.9,128.9, 1000
01/09/2020,17:36,128.93,128.97,128.93,128.97, 200
01/09/2020,17:37,128.97,128.98,128.97,128.98, 300
01/09/2020,17:38,128.99,129,128.99,128.99, 600
01/09/2020,17:39,129,129.03,128.98,128.99, 1910
01/09/2020,17:40,129,129,128.99,128.99, 200
01/09/2020,17:41,128.98,129,128.98,129, 600
01/09/2020,17:42,128.99,129,128.96,128.97, 909
01/09/2020,17:44,128.99,129,128.99,129, 300
01/09/2020,17:45,129,129.01,128.98,128.98, 800
01/09/2020,17:46,129,129,129,129, 300
01/09/2020,17:47,129,129,128.94,128.95, 1800
01/09/2020,17:48,128.96,129,128.95,128.99, 900
01/09/2020,17:49,129,129,128.98,129, 600
01/09/2020,17:50,128.98,128.98,128.95,128.97, 1425
01/09/2020,17:51,128.99,129.01,128.95,128.96, 3000
01/09/2020,17:52,128.96,128.98,128.96,128.98, 322
01/09/2020,17:53,128.98,128.98,128.98,128.98, 200
01/09/2020,17:54,128.98,128.98,128.98,128.98, 305
01/09/2020,17:55,128.98,128.98,128.94,128.95, 600
01/09/2020,17:56,128.95,128.97,128.95,128.97, 670
01/09/2020,17:57,128.96,128.96,128.86,128.86, 1150
01/09/2020,17:58,128.84,128.84,128.81,128.81, 301
01/09/2020,17:59,128.83,128.86,128.83,128.86, 200
01/09/2020,18:00,128.88,128.88,128.88,128.88, 100
01/09/2020,18:01,128.9,128.9,128.9,128.9, 600
01/09/2020,18:02,128.92,128.93,128.92,128.93, 200
01/09/2020,18:03,128.93,128.93,128.88,128.88, 1000
01/09/2020,18:04,128.89,128.89,128.89,128.89, 100
01/09/2020,18:05,128.89,128.89,128.87,128.87, 200
01/09/2020,18:06,128.88,128.88,128.87,128.87, 200
01/09/2020,18:07,128.88,128.89,128.88,128.89, 211
01/09/2020,18:08,128.9,128.9,128.88,128.88, 500
01/09/2020,18:09,128.83,128.84,128.83,128.84, 375
01/09/2020,18:10,128.83,128.83,128.79,128.79, 1015
01/09/2020,18:11,128.8,128.81,128.8,128.81, 566
01/09/2020,18:12,128.8,128.8,128.78,128.8, 800
01/09/2020,18:13,128.76,128.78,128.74,128.76, 8800
01/09/2020,18:14,128.74,128.76,128.74,128.75, 1102
01/09/2020,18:15,128.77,128.78,128.76,128.78, 400
01/09/2020,18:16,128.77,128.77,128.7,128.72, 3230
01/09/2020,18:17,128.71,128.71,128.69,128.69, 400
01/09/2020,18:18,128.72,128.72,128.72,128.72, 400
01/09/2020,18:19,128.7,128.7,128.7,128.7, 600
01/09/2020,18:20,128.7,128.71,128.7,128.7, 3620
01/09/2020,18:21,128.7,128.7,128.65,128.65, 802
01/09/2020,18:22,128.66,128.69,128.66,128.69, 400
01/09/2020,18:23,128.67,128.69,128.65,128.69, 1646
01/09/2020,18:24,128.67,128.67,128.63,128.63, 1605
01/09/2020,18:25,128.57,128.57,128.52,128.55, 500
01/09/2020,18:26,128.55,128.62,128.55,128.62, 9467
01/09/2020,18:27,128.61,128.61,128.56,128.56, 400
01/09/2020,18:28,128.55,128.57,128.55,128.57, 596
01/09/2020,18:29,128.61,128.61,128.58,128.61, 800
01/09/2020,18:30,128.61,128.61,128.61,128.61, 100
01/09/2020,18:31,128.66,128.67,128.65,128.65, 600
01/09/2020,18:32,128.65,128.65,128.65,128.65, 100
01/09/2020,18:33,128.65,128.65,128.65,128.65, 100
01/09/2020,18:34,128.63,128.63,128.58,128.58, 4092
01/09/2020,18:35,128.59,128.59,128.57,128.58, 490
01/09/2020,18:37,128.6,128.63,128.6,128.63, 200
01/09/2020,18:38,128.63,128.63,128.6,128.6, 1797
01/09/2020,18:39,128.6,128.6,128.6,128.6, 100
01/09/2020,18:40,128.61,128.62,128.58,128.58, 600
01/09/2020,18:41,128.59,128.66,128.59,128.63, 2740
01/09/2020,18:41,128.61,128.61,128.61,128.61, 300
01/09/2020,18:43,128.61,128.61,128.61,128.61, 100
01/09/2020,18:45,128.61,128.63,128.61,128.61, 300
01/09/2020,18:46,128.61,128.61,128.59,128.6, 900
01/09/2020,18:47,128.6,128.6,128.56,128.56, 500
01/09/2020,18:49,128.6,128.62,128.59,128.6, 2000
01/09/2020,18:50,128.6,128.6,128.6,128.6, 100
01/09/2020,18:52,128.58,128.58,128.55,128.55, 650
01/09/2020,18:54,128.58,128.61,128.58,128.61, 500
01/09/2020,18:55,128.6,128.61,128.57,128.58, 1800
01/09/2020,18:56,128.59,128.59,128.59,128.59, 100
01/09/2020,18:57,128.59,128.59,128.59,128.59, 200
01/09/2020,18:58,128.6,128.64,128.6,128.62, 4557
01/09/2020,18:59,128.62,128.65,128.61,128.63, 2921
01/09/2020,19:00,128.61,128.64,128.58,128.58, 2783
01/09/2020,19:01,128.56,128.56,128.53,128.56, 1100
01/09/2020,19:02,128.54,128.58,128.54,128.56, 1020
01/09/2020,19:03,128.56,128.57,128.53,128.57, 625
01/09/2020,19:04,128.58,128.61,128.58,128.61, 1041
01/09/2020,19:05,128.62,128.62,128.62,128.62, 100
01/09/2020,19:06,128.59,128.6,128.59,128.6, 200
01/09/2020,19:07,128.6,128.6,128.6,128.6, 500
01/09/2020,19:08,128.59,128.59,128.57,128.57, 3179
01/09/2020,19:09,128.56,128.56,128.53,128.54, 1400
01/09/2020,19:10,128.53,128.57,128.53,128.56, 1496
01/09/2020,19:11,128.57,128.58,128.53,128.53, 6350
01/09/2020,19:12,128.53,128.53,128.47,128.47, 2337
01/09/2020,19:13,128.48,128.53,128.45,128.53, 9139
01/09/2020,19:14,128.57,128.58,128.54,128.56, 3100
01/09/2020,19:15,128.52,128.54,128.51,128.51, 1410
01/09/2020,19:16,128.51,128.51,128.44,128.44, 1611
01/09/2020,19:17,128.42,128.44,128.41,128.43, 3781
01/09/2020,19:18,128.47,128.47,128.47,128.47, 400
01/09/2020,19:19,128.47,128.47,128.45,128.47, 500
01/09/2020,19:20,128.49,128.49,128.44,128.46, 1101
01/09/2020,19:21,128.43,128.43,128.34,128.34, 1710
01/09/2020,19:22,128.37,128.37,128.34,128.34, 200
01/09/2020,19:23,128.41,128.41,128.38,128.38, 1356
01/09/2020,19:24,128.4,128.4,128.34,128.34, 800
01/09/2020,19:25,128.35,128.4,128.35,128.4, 1621
01/09/2020,19:26,128.42,128.46,128.37,128.37, 5124
01/09/2020,19:27,128.34,128.34,128.29,128.29, 798
01/09/2020,19:28,128.3,128.37,128.26,128.37, 11652
01/09/2020,19:29,128.37,128.39,128.34,128.36, 5155
01/09/2020,19:30,128.36,128.36,128.36,128.36, 115
01/09/2020,19:31,128.36,128.38,128.33,128.36, 8600
01/09/2020,19:32,128.38,128.38,128.28,128.29, 3301
01/09/2020,19:33,128.27,128.31,128.26,128.31, 6706
01/09/2020,19:34,128.31,128.37,128.3,128.35, 4149
01/09/2020,19:35,128.34,128.36,128.32,128.34, 3800
01/09/2020,19:36,128.35,128.36,128.33,128.35, 2510
01/09/2020,19:37,128.34,128.36,128.31,128.34, 5998
01/09/2020,19:38,128.35,128.35,128.23,128.31, 7500
01/09/2020,19:39,128.3,128.39,128.3,128.39, 7750
01/09/2020,19:40,128.4,128.45,128.4,128.45, 500
01/09/2020,19:41,128.42,128.48,128.4,128.48, 2223
01/09/2020,19:42,128.44,128.46,128.43,128.43, 1704
01/09/2020,19:43,128.48,128.48,128.4,128.4, 1600
01/09/2020,19:44,128.4,128.44,128.4,128.44, 300
01/09/2020,19:45,128.44,128.45,128.44,128.45, 200
01/09/2020,19:46,128.45,128.46,128.43,128.43, 1213
01/09/2020,19:47,128.43,128.45,128.43,128.45, 1401
01/09/2020,19:48,128.44,128.44,128.39,128.39, 1500
01/09/2020,19:49,128.41,128.42,128.41,128.42, 400
01/09/2020,19:50,128.44,128.44,128.4,128.4, 600
01/09/2020,19:51,128.4,128.4,128.38,128.38, 1498
01/09/2020,19:52,128.4,128.47,128.4,128.44, 1743
01/09/2020,19:53,128.43,128.45,128.42,128.45, 1000
01/09/2020,19:54,128.47,128.48,128.45,128.47, 1000
01/09/2020,19:55,128.49,128.49,128.4,128.4, 1100
01/09/2020,19:56,128.4,128.4,128.4,128.4, 213
01/09/2020,19:57,128.4,128.42,128.4,128.42, 1773
01/09/2020,19:58,128.43,128.44,128.43,128.44, 500
01/09/2020,19:59,128.46,128.51,128.46,128.51, 300
01/09/2020,20:00,128.51,128.53,128.49,128.53, 2003
01/09/2020,20:01,128.5,128.57,128.48,128.57, 1900
01/09/2020,20:02,128.59,128.66,128.59,128.66, 600
01/09/2020,20:03,128.7,128.7,128.7,128.7, 100
01/09/2020,20:04,128.71,128.72,128.63,128.63, 3700
01/09/2020,20:05,128.65,128.66,128.6,128.6, 3367
01/09/2020,20:06,128.61,128.61,128.59,128.59, 976
01/09/2020,20:07,128.58,128.61,128.58,128.61, 700
01/09/2020,20:08,128.65,128.65,128.61,128.65, 1200
01/09/2020,20:09,128.67,128.69,128.67,128.69, 500
01/09/2020,20:10,128.69,128.72,128.63,128.65, 4023
01/09/2020,20:11,128.65,128.65,128.63,128.63, 1000
01/09/2020,20:12,128.64,128.65,128.61,128.62, 4007
01/09/2020,20:13,128.65,128.65,128.63,128.65, 3212
01/09/2020,20:14,128.65,128.65,128.55,128.61, 7754
01/09/2020,20:15,128.61,128.61,128.6,128.6, 203
01/09/2020,20:16,128.61,128.67,128.61,128.67, 800
01/09/2020,20:17,128.69,128.7,128.69,128.7, 800
01/09/2020,20:18,128.69,128.71,128.68,128.7, 2205
01/09/2020,20:19,128.71,128.71,128.71,128.71, 200
01/09/2020,20:20,128.76,128.8,128.76,128.8, 600
01/09/2020,20:21,128.85,128.85,128.85,128.85, 200
01/09/2020,20:22,128.88,128.88,128.85,128.87, 1315
01/09/2020,20:23,128.9,128.93,128.84,128.84, 1547
01/09/2020,20:23,128.83,128.83,128.81,128.81, 1024
01/09/2020,20:25,128.82,128.82,128.76,128.76, 2810
01/09/2020,20:26,128.75,128.76,128.7,128.75, 5144
01/09/2020,20:27,128.76,128.81,128.76,128.8, 5700
01/09/2020,20:28,128.79,128.81,128.79,128.81, 1058
01/09/2020,20:29,128.8,128.8,128.76,128.76, 510
01/09/2020,20:29,128.76,128.76,128.76,128.76, 427
01/09/2020,20:31,128.76,128.78,128.74,128.78, 1127
01/09/2020,20:32,128.8,128.8,128.75,128.75, 1900
01/09/2020,20:33,128.75,128.79,128.75,128.79, 900
01/09/2020,20:34,128.83,128.83,128.78,128.8, 1600
01/09/2020,20:35,128.81,128.82,128.81,128.81, 900
01/09/2020,20:36,128.82,128.82,128.82,128.82, 200
01/09/2020,20:37,128.82,128.83,128.8,128.8, 1600
01/09/2020,20:38,128.81,128.88,128.81,128.82, 3555
01/09/2020,20:39,128.8,128.82,128.63,128.68, 105729
01/09/2020,20:40,128.73,128.74,128.71,128.74, 1000
01/09/2020,20:41,128.75,128.77,128.75,128.77, 1300
01/09/2020,20:42,128.77,128.77,128.68,128.73, 9093
01/09/2020,20:43,128.71,128.71,128.64,128.65, 6417
01/09/2020,20:44,128.66,128.69,128.65,128.68, 17045
01/09/2020,20:45,128.68,128.68,128.57,128.57, 5226
01/09/2020,20:46,128.55,128.55,128.39,128.44, 5540
01/09/2020,20:47,128.44,128.51,128.38,128.42, 15392
01/09/2020,20:48,128.43,128.44,128.4,128.44, 7700
01/09/2020,20:49,128.43,128.43,128.42,128.43, 1153
01/09/2020,20:50,128.44,128.46,128.43,128.46, 2082
01/09/2020,20:51,128.49,128.49,128.41,128.43, 18600
01/09/2020,20:52,128.43,128.43,128.4,128.4, 2200
01/09/2020,20:53,128.41,128.43,128.38,128.42, 1200
01/09/2020,20:54,128.43,128.43,128.36,128.36, 4107
01/09/2020,20:55,128.37,128.41,128.37,128.39, 1345
01/09/2020,20:56,128.37,128.37,128.34,128.35, 1508
01/09/2020,20:57,128.35,128.38,128.35,128.38, 560
01/09/2020,20:58,128.38,128.39,128.38,128.38, 1592
01/09/2020,20:59,128.38,128.4,128.38,128.39, 980
01/09/2020,20:59,128.41,128.41,128.41,128.41, 400
01/09/2020,21:01,128.43,128.46,128.4,128.42, 3102
01/09/2020,21:02,128.42,128.43,128.41,128.43, 900
01/09/2020,21:03,128.43,128.44,128.42,128.43, 800
01/09/2020,21:04,128.43,128.46,128.43,128.46, 701
01/09/2020,21:05,128.49,128.58,128.47,128.58, 3220
01/09/2020,21:06,128.59,128.63,128.58,128.63, 1900
01/09/2020,21:07,128.65,128.66,128.65,128.66, 200
01/09/2020,21:08,128.65,128.65,128.58,128.58, 4530
01/09/2020,21:09,128.58,128.6,128.58,128.6, 800
01/09/2020,21:10,128.62,128.62,128.62,128.62, 246
01/09/2020,21:12,128.64,128.65,128.58,128.61, 3524
01/09/2020,21:13,128.63,128.64,128.62,128.62, 1231
01/09/2020,21:14,128.62,128.64,128.59,128.59, 1854
01/09/2020,21:15,128.59,128.61,128.59,128.6, 772
01/09/2020,21:16,128.61,128.65,128.61,128.65, 1174
01/09/2020,21:17,128.64,128.65,128.63,128.63, 1324
01/09/2020,21:18,128.64,128.64,128.57,128.57, 1207
01/09/2020,21:19,128.6,128.7,128.6,128.69, 2659
01/09/2020,21:20,128.7,128.71,128.63,128.63, 10065
01/09/2020,21:21,128.63,128.63,128.56,128.56, 1600
01/09/2020,21:23,128.55,128.56,128.54,128.55, 519
01/09/2020,21:24,128.56,128.58,128.55,128.55, 2949
01/09/2020,21:25,128.57,128.58,128.56,128.56, 900
01/09/2020,21:26,128.56,128.58,128.56,128.56, 1740
01/09/2020,21:27,128.56,128.56,128.55,128.56, 400
01/09/2020,21:28,128.55,128.56,128.51,128.51, 11699
01/09/2020,21:29,128.51,128.56,128.51,128.56, 2533
01/09/2020,21:30,128.57,128.63,128.57,128.63, 700
01/09/2020,21:31,128.63,128.67,128.63,128.67, 1200
01/09/2020,21:32,128.69,128.7,128.65,128.65, 1935
01/09/2020,21:33,128.67,128.67,128.67,128.67, 300
01/09/2020,21:34,128.68,128.69,128.66,128.66, 1600
01/09/2020,21:35,128.66,128.68,128.66,128.68, 3052
01/09/2020,21:36,128.65,128.66,128.57,128.57, 3230
01/09/2020,21:37,128.56,128.57,128.54,128.54, 1840
01/09/2020,21:38,128.54,128.55,128.47,128.49, 4406
01/09/2020,21:39,128.47,128.47,128.43,128.43, 3780
01/09/2020,21:40,128.44,128.45,128.41,128.44, 3221
01/09/2020,21:41,128.41,128.41,128.32,128.37, 6977
01/09/2020,21:42,128.38,128.42,128.38,128.39, 1272
01/09/2020,21:43,128.41,128.42,128.41,128.42, 1419
01/09/2020,21:44,128.43,128.46,128.43,128.45, 2101
01/09/2020,21:45,128.45,128.5,128.44,128.5, 3042
01/09/2020,21:46,128.49,128.5,128.49,128.5, 1373
01/09/2020,21:47,128.53,128.58,128.53,128.54, 4982
01/09/2020,21:48,128.54,128.54,128.46,128.48, 4485
01/09/2020,21:49,128.49,128.51,128.48,128.51, 3301
01/09/2020,21:49,128.52,128.52,128.52,128.52, 100
01/09/2020,21:51,128.5,128.6,128.49,128.55, 14114
01/09/2020,21:52,128.5,128.51,128.48,128.51, 5355
01/09/2020,21:53,128.52,128.52,128.49,128.5, 3711
01/09/2020,21:54,128.5,128.53,128.49,128.51, 5772
01/09/2020,21:55,128.5,128.51,128.46,128.46, 8879
01/09/2020,21:56,128.46,128.48,128.41,128.43, 7822
01/09/2020,21:57,128.43,128.5,128.43,128.5, 6576
01/09/2020,21:58,128.49,128.51,128.44,128.45, 8076
01/09/2020,21:59,128.44,128.55,128.42,128.55, 8388
01/09/2020,22:00,128.55,128.7,128.54,128.7, 48928
01/09/2020,22:01,128.7,128.71,128.63,128.67, 22791
01/09/2020,22:05,128.66,128.66,128.66,128.66, 221679
01/10/2020,15:31,128.86,128.86,128.68,128.75, 14562
01/10/2020,15:31,128.8,128.8,128.8,128.8, 200
01/10/2020,15:33,128.8,128.8,128.61,128.61, 901
01/10/2020,15:33,128.63,128.74,128.6,128.74, 700
01/10/2020,15:35,128.84,128.89,128.81,128.88, 11300
01/10/2020,15:36,128.89,128.89,128.67,128.67, 671
01/10/2020,15:36,128.76,128.76,128.76,128.76, 200
01/10/2020,15:38,128.83,128.84,128.83,128.84, 200
01/10/2020,15:39,128.86,128.86,128.86,128.86, 500
01/10/2020,15:40,128.86,128.9,128.86,128.88, 1904
01/10/2020,15:41,128.88,128.89,128.85,128.89, 1500
01/10/2020,15:42,128.89,128.9,128.85,128.89, 12500
01/10/2020,15:42,128.91,128.92,128.86,128.89, 13400
01/10/2020,15:44,128.86,128.87,128.83,128.87, 500
01/10/2020,15:45,128.82,128.85,128.8,128.83, 2193
01/10/2020,15:46,128.77,128.79,128.67,128.77, 1447
01/10/2020,15:47,128.69,128.69,128.69,128.69, 100
01/10/2020,15:49,128.73,128.78,128.73,128.78, 509
01/10/2020,15:49,128.76,128.83,128.75,128.82, 2600
01/10/2020,15:51,128.92,128.92,128.88,128.89, 3096
01/10/2020,15:52,128.9,128.9,128.84,128.9, 3110
01/10/2020,15:53,128.9,128.9,128.85,128.89, 900
01/10/2020,15:54,128.92,128.96,128.83,128.83, 2296
01/10/2020,15:55,128.84,128.84,128.84,128.84, 100
01/10/2020,15:56,128.83,128.84,128.79,128.79, 300
01/10/2020,15:57,128.81,128.86,128.8,128.83, 1302
01/10/2020,15:58,128.83,128.95,128.83,128.95, 1116
01/10/2020,15:59,128.96,128.97,128.9,128.93, 52685
01/10/2020,16:00,128.91,128.98,128.89,128.98, 3068
01/10/2020,16:01,128.95,129.11,128.9,129.11, 4953
01/10/2020,16:02,129.04,129.3,128.9,129.2, 31818
01/10/2020,16:03,129.2,129.2,129.14,129.14, 1000
01/10/2020,16:04,129.15,129.18,129.14,129.18, 307
01/10/2020,16:05,129.13,129.13,129.07,129.09, 4700
01/10/2020,16:06,129.11,129.13,129.07,129.08, 2292
01/10/2020,16:06,129.13,129.16,129.09,129.16, 400
01/10/2020,16:07,129.11,129.15,129.08,129.13, 3308
01/10/2020,16:09,129.14,129.14,129.05,129.06, 2130
01/10/2020,16:10,129.05,129.11,129.01,129.06, 7869
01/10/2020,16:11,129.07,129.07,129.07,129.07, 100
01/10/2020,16:12,129.06,129.14,128.9,129.11, 267980
01/10/2020,16:13,129.12,129.29,129.12,129.29, 1300
01/10/2020,16:14,129.24,129.28,129.22,129.28, 1762
01/10/2020,16:15,129.25,129.28,129.22,129.26, 8856
01/10/2020,16:16,129.26,129.4,129.26,129.4, 1300
01/10/2020,16:17,129.42,129.47,129.38,129.41, 903
01/10/2020,16:17,129.31,129.31,129.28,129.28, 400
01/10/2020,16:19,129.25,129.32,129.25,129.32, 28604
01/10/2020,16:20,129.32,129.32,129.26,129.26, 700
01/10/2020,16:20,129.26,129.26,129.25,129.26, 600
01/10/2020,16:22,129.13,129.2,129.13,129.16, 300
01/10/2020,16:23,129.13,129.15,129.03,129.03, 3680
01/10/2020,16:24,129.03,129.09,128.98,129.09, 5405
01/10/2020,16:25,129.13,129.13,129.1,129.12, 2489
01/10/2020,16:26,129.08,129.09,129.08,129.09, 500
01/10/2020,16:27,129.06,129.09,129.06,129.09, 311
01/10/2020,16:28,129.1,129.1,128.93,128.93, 1418
01/10/2020,16:29,128.91,128.98,128.91,128.98, 3030
01/10/2020,16:30,128.93,128.99,128.93,128.99, 400
01/10/2020,16:31,128.93,128.97,128.87,128.87, 740
01/10/2020,16:32,128.84,128.9,128.84,128.9, 1277
01/10/2020,16:32,128.9,128.91,128.9,128.91, 200
01/10/2020,16:34,128.96,128.96,128.96,128.96, 300
01/10/2020,16:35,128.99,129,128.93,128.95, 1456
01/10/2020,16:35,128.95,128.98,128.94,128.98, 1739
01/10/2020,16:37,128.99,129.02,128.95,129.02, 750
01/10/2020,16:38,129.02,129.02,129,129, 200
01/10/2020,16:39,128.97,129.01,128.97,129, 6137
01/10/2020,16:40,129,129.02,128.97,129.01, 2868
01/10/2020,16:41,129.01,129.08,129,129.07, 2633
01/10/2020,16:41,129.05,129.06,129.02,129.06, 457
01/10/2020,16:43,129.05,129.07,129.05,129.05, 600
01/10/2020,16:44,129.07,129.07,128.97,129, 12057
01/10/2020,16:45,129.01,129.11,129.01,129.11, 2789
01/10/2020,16:46,129.1,129.1,129.08,129.08, 2400
01/10/2020,16:47,129.09,129.09,129,129.07, 3875
01/10/2020,16:48,129.06,129.06,129.03,129.05, 2325
01/10/2020,16:48,129.08,129.09,129.07,129.09, 400
01/10/2020,16:50,129.09,129.09,129.02,129.02, 935
01/10/2020,16:51,129.01,129.07,129.01,129.07, 20307
01/10/2020,16:52,129.08,129.08,129.07,129.07, 665
01/10/2020,16:52,129.09,129.1,129.05,129.09, 717
01/10/2020,16:54,129.11,129.14,129.1,129.13, 642
01/10/2020,16:55,129.11,129.11,129.05,129.05, 452
01/10/2020,16:56,129.03,129.12,129.01,129.12, 1200
01/10/2020,16:57,129.14,129.14,129.14,129.14, 100
01/10/2020,16:58,129.15,129.18,129.15,129.18, 500
01/10/2020,16:59,129.13,129.13,129.12,129.12, 200
01/10/2020,17:00,129.14,129.14,129.14,129.14, 100
01/10/2020,17:01,129.1,129.1,129.1,129.1, 100
01/10/2020,17:02,129.15,129.15,129.11,129.11, 1100
01/10/2020,17:03,129.08,129.14,129.08,129.12, 1000
01/10/2020,17:04,129.15,129.15,129.13,129.14, 500
01/10/2020,17:05,129.15,129.15,129.13,129.13, 200
01/10/2020,17:06,129.12,129.12,129.11,129.11, 400
01/10/2020,17:07,129.11,129.11,129.05,129.09, 3199
01/10/2020,17:07,129.1,129.11,129.1,129.11, 200
01/10/2020,17:09,129.08,129.08,129.01,129.05, 4873
01/10/2020,17:10,129.06,129.07,128.97,128.98, 1216
01/10/2020,17:11,128.99,129,128.94,128.94, 524
01/10/2020,17:12,128.94,128.95,128.91,128.91, 400
01/10/2020,17:13,128.87,128.9,128.83,128.9, 1462
01/10/2020,17:14,128.9,128.91,128.88,128.88, 649
01/10/2020,17:15,128.85,128.9,128.83,128.83, 2215
01/10/2020,17:16,128.83,128.85,128.7,128.73, 1965
01/10/2020,17:17,128.71,128.72,128.71,128.72, 200
01/10/2020,17:18,128.71,128.73,128.67,128.67, 5068
01/10/2020,17:19,128.63,128.7,128.63,128.7, 1459
01/10/2020,17:20,128.68,128.77,128.68,128.73, 1200
01/10/2020,17:21,128.72,128.74,128.7,128.73, 1900
01/10/2020,17:22,128.74,128.74,128.68,128.68, 900
01/10/2020,17:23,128.7,128.74,128.7,128.74, 400
01/10/2020,17:24,128.73,128.73,128.7,128.7, 400
01/10/2020,17:25,128.65,128.65,128.54,128.6, 1400
01/10/2020,17:26,128.5,128.5,128.5,128.5, 100
01/10/2020,17:27,128.5,128.55,128.49,128.54, 1251
01/10/2020,17:28,128.52,128.52,128.5,128.51, 2600
01/10/2020,17:29,128.52,128.52,128.46,128.48, 1482
01/10/2020,17:30,128.46,128.52,128.46,128.48, 3202
01/10/2020,17:32,128.44,128.44,128.42,128.42, 300
01/10/2020,17:33,128.4,128.43,128.36,128.39, 3193
01/10/2020,17:34,128.4,128.4,128.3,128.36, 2800
01/10/2020,17:35,128.31,128.33,128.24,128.29, 1810
01/10/2020,17:36,128.33,128.36,128.32,128.34, 1000
01/10/2020,17:37,128.36,128.37,128.31,128.35, 3647
01/10/2020,17:38,128.34,128.34,128.26,128.26, 1300
01/10/2020,17:39,128.24,128.26,128.23,128.26, 4337
01/10/2020,17:40,128.25,128.34,128.23,128.34, 3237
01/10/2020,17:41,128.35,128.39,128.34,128.39, 1214
01/10/2020,17:42,128.4,128.41,128.39,128.41, 300
01/10/2020,17:43,128.41,128.43,128.39,128.39, 1280
