02/03/2020,15:31,120.49,120.51,120.49,120.49, 13710
02/03/2020,15:32,120.48,120.75,120.21,120.52, 4343
02/03/2020,15:33,120.55,120.74,120.38,120.74, 1000
02/03/2020,15:34,120.61,120.66,120.44,120.55, 10416
02/03/2020,15:35,120.53,120.53,120.24,120.38, 5862
02/03/2020,15:36,120.46,120.56,120.28,120.31, 10733
02/03/2020,15:37,120.32,120.34,120.22,120.26, 2603
02/03/2020,15:38,120.3,120.58,120.3,120.58, 2290
02/03/2020,15:39,120.7,120.71,120.59,120.59, 2000
02/03/2020,15:40,120.59,120.62,120.57,120.61, 1300
02/03/2020,15:41,120.57,120.6,120.43,120.46, 1702
02/03/2020,15:42,120.46,120.54,120.38,120.5, 2738
02/03/2020,15:43,120.45,120.5,120.45,120.47, 1398
02/03/2020,15:44,120.47,120.49,120.37,120.44, 1686
02/03/2020,15:45,120.37,120.53,120.37,120.53, 1500
02/03/2020,15:46,120.53,120.64,120.52,120.6, 2820
02/03/2020,15:47,120.62,120.83,120.62,120.83, 2809
02/03/2020,15:48,120.94,120.95,120.89,120.94, 1100
02/03/2020,15:49,120.91,121.12,120.9,121.06, 2567
02/03/2020,15:50,121.01,121.05,120.91,120.91, 3360
02/03/2020,15:51,120.91,120.98,120.9,120.97, 2639
02/03/2020,15:52,121.01,121.1,120.95,121.07, 3324
02/03/2020,15:53,121.07,121.23,121.06,121.19, 3940
02/03/2020,15:54,121.21,121.21,121.14,121.18, 3063
02/03/2020,15:55,121.2,121.24,121.18,121.19, 2000
02/03/2020,15:56,121.19,121.19,121.14,121.14, 2300
02/03/2020,15:57,121.2,121.21,121.15,121.21, 2203
02/03/2020,15:58,121.17,121.2,121.17,121.17, 1200
02/03/2020,15:59,121.19,121.19,121.17,121.19, 2900
02/03/2020,16:00,121.2,121.3,121.19,121.26, 3485
02/03/2020,16:01,121.26,121.57,121.26,121.53, 2739
02/03/2020,16:02,121.56,121.59,121.51,121.55, 3368
02/03/2020,16:03,121.51,121.53,121.46,121.46, 1720
02/03/2020,16:04,121.43,121.43,121.39,121.43, 700
02/03/2020,16:05,121.46,121.48,121.43,121.44, 1569
02/03/2020,16:06,121.31,121.31,121.15,121.21, 526
02/03/2020,16:07,121.27,121.32,121.03,121.16, 6428
02/03/2020,16:08,121.15,121.17,121.06,121.06, 1119
02/03/2020,16:09,121,121,120.89,120.9, 1200
02/03/2020,16:10,120.95,120.95,120.85,120.89, 2786
02/03/2020,16:11,120.89,120.98,120.85,120.93, 1548
02/03/2020,16:12,120.93,120.98,120.92,120.95, 1400
02/03/2020,16:13,121,121,120.91,120.97, 1200
02/03/2020,16:14,120.93,120.93,120.77,120.77, 1200
02/03/2020,16:15,120.81,120.81,120.69,120.69, 1200
02/03/2020,16:16,120.76,120.87,120.72,120.87, 1800
02/03/2020,16:17,120.87,120.9,120.82,120.89, 1020
02/03/2020,16:18,120.89,120.91,120.88,120.89, 2968
02/03/2020,16:19,120.91,121.03,120.91,120.98, 1049
02/03/2020,16:20,120.97,120.97,120.89,120.89, 1522
02/03/2020,16:21,120.9,120.9,120.87,120.87, 700
02/03/2020,16:22,120.83,120.83,120.74,120.74, 917
02/03/2020,16:23,120.69,120.73,120.64,120.71, 2069
02/03/2020,16:24,120.7,120.73,120.62,120.64, 1926
02/03/2020,16:25,120.63,120.79,120.61,120.79, 3686
02/03/2020,16:26,120.82,120.87,120.81,120.87, 1500
02/03/2020,16:27,120.91,120.91,120.8,120.88, 1720
02/03/2020,16:28,120.84,120.91,120.76,120.8, 2420
02/03/2020,16:29,120.78,120.91,120.78,120.88, 2308
02/03/2020,16:30,120.94,121.01,120.94,120.97, 3000
02/03/2020,16:31,120.99,120.99,120.88,120.96, 1720
02/03/2020,16:32,120.94,120.98,120.92,120.94, 2581
02/03/2020,16:33,120.93,120.95,120.91,120.91, 1400
02/03/2020,16:34,120.92,121.03,120.92,120.99, 4381
02/03/2020,16:35,121.01,121.01,120.86,120.86, 1700
02/03/2020,16:36,120.86,120.9,120.82,120.85, 2260
02/03/2020,16:37,120.9,120.94,120.85,120.91, 1423
02/03/2020,16:38,120.91,120.94,120.89,120.94, 1020
02/03/2020,16:39,120.9,121,120.88,121, 3675
02/03/2020,16:40,121.03,121.06,121.01,121.06, 3133
02/03/2020,16:41,121.03,121.07,121.02,121.07, 1427
02/03/2020,16:42,121.05,121.07,121.05,121.06, 980
02/03/2020,16:43,121.04,121.06,121.01,121.02, 2576
02/03/2020,16:44,121.04,121.04,121,121.01, 1100
02/03/2020,16:45,121.01,121.01,120.95,120.95, 2229
02/03/2020,16:46,120.92,120.94,120.91,120.91, 1400
02/03/2020,16:47,120.9,120.9,120.83,120.83, 1022
02/03/2020,16:48,120.84,120.85,120.76,120.82, 2461
02/03/2020,16:49,120.77,120.81,120.74,120.77, 1089
02/03/2020,16:50,120.79,120.79,120.63,120.63, 2580
02/03/2020,16:51,120.62,120.71,120.6,120.71, 2195
02/03/2020,16:52,120.73,120.81,120.73,120.78, 1600
02/03/2020,16:53,120.8,120.83,120.78,120.82, 1200
02/03/2020,16:54,120.84,120.85,120.83,120.83, 400
02/03/2020,16:55,120.9,120.95,120.9,120.95, 1202
02/03/2020,16:56,120.96,121.02,120.94,121.02, 2012
02/03/2020,16:57,121.07,121.07,121.03,121.05, 3172
02/03/2020,16:58,121.02,121.05,120.98,121.05, 1786
02/03/2020,16:59,121.04,121.04,121.03,121.03, 310
02/03/2020,17:00,121.03,121.03,121,121.02, 1200
02/03/2020,17:01,121.02,121.08,121.01,121.08, 1000
02/03/2020,17:02,121.08,121.12,121.08,121.12, 715
02/03/2020,17:03,121.15,121.15,121.15,121.15, 400
02/03/2020,17:04,121.15,121.15,121.06,121.06, 2233
02/03/2020,17:05,121.04,121.11,121.04,121.11, 1200
02/03/2020,17:06,121.12,121.12,121.1,121.1, 200
02/03/2020,17:07,121.11,121.14,121.11,121.14, 530
02/03/2020,17:08,121.15,121.15,121.15,121.15, 100
02/03/2020,17:09,121.19,121.25,121.19,121.22, 1102
02/03/2020,17:10,121.23,121.24,121.2,121.22, 3639
02/03/2020,17:11,121.21,121.22,121.19,121.22, 735
02/03/2020,17:12,121.21,121.21,121.17,121.2, 2665
02/03/2020,17:13,121.21,121.21,121.21,121.21, 100
02/03/2020,17:14,121.24,121.24,121.19,121.19, 1150
02/03/2020,17:15,121.17,121.17,121.11,121.14, 890
02/03/2020,17:16,121.16,121.22,121.1,121.1, 51200
02/03/2020,17:17,121.16,121.16,120.99,121.02, 1399
02/03/2020,17:18,121.04,121.06,120.86,120.86, 2320
02/03/2020,17:19,120.85,120.85,120.46,120.57, 37725
02/03/2020,17:20,120.56,120.68,120.52,120.65, 2200
02/03/2020,17:21,120.67,120.75,120.67,120.73, 2045
02/03/2020,17:22,120.78,120.85,120.71,120.72, 3314
02/03/2020,17:23,120.73,120.78,120.72,120.74, 1200
02/03/2020,17:24,120.75,120.76,120.72,120.76, 3026
02/03/2020,17:25,120.74,120.74,120.69,120.74, 1740
02/03/2020,17:26,120.72,120.79,120.72,120.78, 1400
02/03/2020,17:27,120.77,120.83,120.77,120.83, 2620
02/03/2020,17:28,120.81,120.81,120.76,120.76, 2611
02/03/2020,17:29,120.74,120.75,120.67,120.69, 2333
02/03/2020,17:30,120.67,120.68,120.57,120.58, 1700
02/03/2020,17:31,120.65,120.67,120.62,120.62, 1000
02/03/2020,17:32,120.67,120.69,120.57,120.57, 2436
02/03/2020,17:33,120.51,120.55,120.47,120.55, 1569
02/03/2020,17:34,120.53,120.55,120.5,120.55, 1574
02/03/2020,17:35,120.55,120.63,120.55,120.63, 902
02/03/2020,17:36,120.62,120.62,120.59,120.61, 853
02/03/2020,17:37,120.61,120.61,120.61,120.61, 600
02/03/2020,17:38,120.62,120.63,120.59,120.61, 2233
02/03/2020,17:39,120.61,120.61,120.49,120.54, 3325
02/03/2020,17:40,120.56,120.58,120.49,120.49, 1593
02/03/2020,17:41,120.49,120.59,120.45,120.59, 4000
02/03/2020,17:42,120.59,120.59,120.46,120.47, 3935
02/03/2020,17:43,120.44,120.5,120.42,120.45, 2700
02/03/2020,17:44,120.44,120.46,120.3,120.3, 2000
02/03/2020,17:45,120.27,120.33,120.21,120.33, 3100
02/03/2020,17:46,120.32,120.32,120.24,120.3, 2400
02/03/2020,17:47,120.24,120.26,120.16,120.18, 1914
02/03/2020,17:48,120.16,120.21,120.12,120.21, 2469
02/03/2020,17:49,120.19,120.19,120.09,120.19, 3669
02/03/2020,17:50,120.2,120.2,120.06,120.06, 1100
02/03/2020,17:51,120.09,120.14,120.07,120.07, 2283
02/03/2020,17:52,120.07,120.08,120.04,120.06, 1325
02/03/2020,17:53,120.04,120.04,119.93,120, 2701
02/03/2020,17:54,120.01,120.01,119.95,119.95, 1400
02/03/2020,17:55,119.98,120.05,119.97,120.03, 2029
02/03/2020,17:56,120.05,120.06,120.02,120.05, 1940
02/03/2020,17:57,120.04,120.04,120.04,120.04, 200
02/03/2020,17:58,120.04,120.15,120.04,120.15, 1644
02/03/2020,17:59,120.11,120.16,120.11,120.16, 1226
02/03/2020,18:00,120.16,120.23,120.16,120.21, 1700
02/03/2020,18:01,120.21,120.22,120.17,120.17, 3115
02/03/2020,18:02,120.16,120.2,120.16,120.18, 1463
02/03/2020,18:03,120.17,120.28,120.17,120.25, 2760
02/03/2020,18:04,120.27,120.37,120.26,120.37, 2246
02/03/2020,18:05,120.35,120.41,120.35,120.39, 500
02/03/2020,18:06,120.39,120.39,120.37,120.39, 1777
02/03/2020,18:07,120.36,120.4,120.36,120.36, 2471
02/03/2020,18:08,120.37,120.37,120.35,120.36, 900
02/03/2020,18:09,120.35,120.35,120.29,120.32, 2000
02/03/2020,18:10,120.33,120.33,120.33,120.33, 1500
02/03/2020,18:11,120.33,120.33,120.3,120.31, 700
02/03/2020,18:12,120.31,120.37,120.31,120.37, 1100
02/03/2020,18:13,120.37,120.44,120.37,120.44, 1200
02/03/2020,18:13,120.43,120.43,120.4,120.4, 300
02/03/2020,18:15,120.41,120.45,120.41,120.45, 1600
02/03/2020,18:16,120.43,120.5,120.43,120.49, 1242
02/03/2020,18:17,120.49,120.49,120.49,120.49, 100
02/03/2020,18:18,120.47,120.54,120.47,120.53, 1946
02/03/2020,18:19,120.52,120.56,120.52,120.54, 1500
02/03/2020,18:20,120.55,120.55,120.53,120.55, 400
02/03/2020,18:21,120.53,120.55,120.52,120.53, 3196
02/03/2020,18:22,120.54,120.54,120.54,120.54, 600
02/03/2020,18:23,120.54,120.59,120.52,120.56, 7734
02/03/2020,18:24,120.56,120.62,120.52,120.62, 4957
02/03/2020,18:25,120.62,120.62,120.59,120.59, 1800
02/03/2020,18:26,120.59,120.59,120.54,120.56, 600
02/03/2020,18:27,120.53,120.56,120.48,120.48, 800
02/03/2020,18:28,120.48,120.53,120.48,120.52, 2277
02/03/2020,18:29,120.5,120.52,120.49,120.52, 5810
02/03/2020,18:30,120.53,120.58,120.53,120.55, 2219
02/03/2020,18:31,120.53,120.53,120.49,120.51, 637
02/03/2020,18:32,120.51,120.55,120.51,120.55, 1103
02/03/2020,18:33,120.55,120.55,120.44,120.44, 1747
02/03/2020,18:34,120.45,120.46,120.44,120.44, 1000
02/03/2020,18:35,120.45,120.5,120.45,120.5, 1610
02/03/2020,18:36,120.48,120.55,120.46,120.55, 4900
02/03/2020,18:37,120.57,120.57,120.55,120.55, 2437
02/03/2020,18:38,120.57,120.6,120.57,120.6, 1238
02/03/2020,18:39,120.6,120.61,120.58,120.61, 2419
02/03/2020,18:40,120.62,120.63,120.6,120.6, 2913
02/03/2020,18:41,120.6,120.61,120.57,120.59, 10683
02/03/2020,18:42,120.59,120.68,120.59,120.66, 2100
02/03/2020,18:43,120.65,120.67,120.63,120.63, 2568
02/03/2020,18:44,120.63,120.65,120.63,120.65, 912
02/03/2020,18:45,120.65,120.65,120.5,120.58, 9782
02/03/2020,18:46,120.6,120.61,120.56,120.56, 16850
02/03/2020,18:47,120.58,120.63,120.58,120.6, 2974
02/03/2020,18:48,120.6,120.75,120.6,120.75, 9133
02/03/2020,18:49,120.75,120.86,120.7,120.74, 51299
02/03/2020,18:50,120.79,120.89,120.79,120.88, 1000
02/03/2020,18:51,120.85,120.87,120.84,120.85, 700
02/03/2020,18:52,120.86,120.89,120.83,120.83, 1916
02/03/2020,18:53,120.84,120.84,120.83,120.83, 400
02/03/2020,18:54,120.84,120.84,120.75,120.75, 1434
02/03/2020,18:55,120.74,120.77,120.71,120.74, 1619
02/03/2020,18:56,120.74,120.78,120.73,120.73, 1000
02/03/2020,18:57,120.74,120.74,120.69,120.72, 800
02/03/2020,18:58,120.71,120.72,120.7,120.7, 1136
02/03/2020,18:59,120.7,120.81,120.7,120.79, 3617
02/03/2020,19:00,120.79,120.84,120.78,120.78, 4062
02/03/2020,19:01,120.78,120.88,120.77,120.84, 6613
02/03/2020,19:02,120.84,120.91,120.81,120.91, 4709
02/03/2020,19:03,120.88,120.9,120.82,120.9, 3412
02/03/2020,19:04,120.91,120.95,120.9,120.9, 1717
02/03/2020,19:05,120.91,120.92,120.9,120.9, 648
02/03/2020,19:06,120.92,120.95,120.92,120.95, 1600
02/03/2020,19:07,120.97,120.97,120.91,120.93, 3125
02/03/2020,19:08,120.93,120.93,120.86,120.86, 3950
02/03/2020,19:09,120.86,120.86,120.78,120.78, 2310
02/03/2020,19:10,120.78,120.78,120.77,120.77, 700
02/03/2020,19:11,120.77,120.79,120.76,120.77, 1870
02/03/2020,19:12,120.78,120.78,120.7,120.7, 1456
02/03/2020,19:13,120.75,120.78,120.7,120.71, 1500
02/03/2020,19:14,120.72,120.72,120.67,120.7, 2439
02/03/2020,19:15,120.69,120.7,120.67,120.7, 1400
02/03/2020,19:16,120.68,120.69,120.64,120.64, 2200
02/03/2020,19:17,120.65,120.71,120.65,120.7, 1500
02/03/2020,19:18,120.7,120.7,120.66,120.7, 2301
02/03/2020,19:19,120.72,120.8,120.72,120.79, 526
02/03/2020,19:20,120.81,120.86,120.81,120.86, 1731
02/03/2020,19:21,120.84,120.86,120.83,120.86, 817
02/03/2020,19:22,120.85,120.85,120.83,120.83, 300
02/03/2020,19:23,120.83,120.86,120.8,120.8, 900
02/03/2020,19:24,120.82,120.82,120.8,120.8, 700
02/03/2020,19:25,120.8,120.81,120.78,120.79, 1306
02/03/2020,19:26,120.81,120.83,120.79,120.82, 1975
02/03/2020,19:27,120.82,120.83,120.8,120.8, 874
02/03/2020,19:27,120.82,120.82,120.82,120.82, 247
02/03/2020,19:29,120.8,120.83,120.8,120.83, 1688
02/03/2020,19:30,120.84,120.87,120.84,120.84, 1079
02/03/2020,19:31,120.84,120.9,120.84,120.9, 2517
02/03/2020,19:32,120.94,120.94,120.88,120.88, 2064
02/03/2020,19:33,120.88,120.88,120.8,120.8, 1691
02/03/2020,19:34,120.83,120.88,120.83,120.88, 2000
02/03/2020,19:35,120.86,120.92,120.86,120.92, 2999
02/03/2020,19:36,120.92,120.94,120.9,120.93, 1344
02/03/2020,19:37,120.94,121.01,120.94,120.98, 1700
02/03/2020,19:38,120.98,120.98,120.92,120.92, 1597
02/03/2020,19:39,120.94,120.98,120.92,120.98, 1483
02/03/2020,19:40,120.99,121.03,120.98,121.03, 500
02/03/2020,19:41,121.02,121.03,121.02,121.03, 815
02/03/2020,19:42,121.03,121.09,121,121.07, 1562
02/03/2020,19:43,121.07,121.07,121,121.02, 2000
02/03/2020,19:44,121,121,120.95,120.95, 700
02/03/2020,19:45,120.95,120.99,120.95,120.97, 1400
02/03/2020,19:46,121,121,120.97,120.97, 590
02/03/2020,19:47,120.95,120.95,120.9,120.9, 1350
02/03/2020,19:48,120.93,121,120.93,120.99, 1185
02/03/2020,19:49,120.99,121,120.96,120.96, 2200
02/03/2020,19:50,120.98,120.98,120.96,120.96, 200
02/03/2020,19:51,120.96,120.96,120.96,120.96, 1253
02/03/2020,19:52,120.96,120.96,120.93,120.93, 1663
02/03/2020,19:53,120.92,120.92,120.9,120.9, 1115
02/03/2020,19:54,120.89,120.9,120.82,120.82, 4100
02/03/2020,19:55,120.83,120.95,120.83,120.92, 1900
02/03/2020,19:56,121,121,120.93,120.93, 2120
02/03/2020,19:57,120.95,120.95,120.93,120.93, 448
02/03/2020,19:59,120.96,121,120.96,120.97, 5320
02/03/2020,20:00,120.96,120.98,120.9,120.98, 8600
02/03/2020,20:01,120.99,121.12,120.99,121.09, 53001
02/03/2020,20:02,121.09,121.13,121.09,121.13, 1100
02/03/2020,20:03,121.11,121.14,121.09,121.09, 3977
02/03/2020,20:04,121.11,121.11,121.07,121.07, 1034
02/03/2020,20:05,121.11,121.12,121.08,121.08, 915
02/03/2020,20:06,121.08,121.09,121.07,121.07, 1198
02/03/2020,20:07,121.09,121.11,121.07,121.07, 1227
02/03/2020,20:08,121.07,121.1,120.99,120.99, 4096
02/03/2020,20:09,120.99,121.02,120.99,121.01, 1186
02/03/2020,20:10,121.08,121.12,121.05,121.05, 2930
02/03/2020,20:11,121.06,121.07,121.05,121.05, 900
02/03/2020,20:12,121.04,121.06,121.04,121.04, 1054
02/03/2020,20:13,121.03,121.03,120.95,120.95, 4349
02/03/2020,20:15,120.97,121.01,120.96,121, 1100
02/03/2020,20:16,120.98,121.02,120.98,121, 1820
02/03/2020,20:17,121.01,121.04,121.01,121.04, 3400
02/03/2020,20:18,121.04,121.09,121.03,121.09, 600
02/03/2020,20:19,121.07,121.07,121.06,121.06, 1300
02/03/2020,20:20,121.06,121.08,121.06,121.08, 808
02/03/2020,20:21,121.08,121.14,121.08,121.11, 2194
02/03/2020,20:22,121.14,121.15,121.12,121.13, 1975
02/03/2020,20:23,121.16,121.16,121.12,121.12, 627
02/03/2020,20:24,121.11,121.12,121.06,121.07, 4610
02/03/2020,20:24,121.08,121.08,121.08,121.08, 300
02/03/2020,20:26,121.14,121.15,121.11,121.15, 777
02/03/2020,20:27,121.17,121.17,121.15,121.16, 710
02/03/2020,20:28,121.15,121.15,121.11,121.13, 1655
02/03/2020,20:29,121.13,121.13,121.1,121.1, 1239
02/03/2020,20:30,121.1,121.1,121.08,121.09, 928
02/03/2020,20:31,121.13,121.22,121.13,121.22, 2400
02/03/2020,20:32,121.24,121.26,121.24,121.26, 500
02/03/2020,20:33,121.26,121.26,121.22,121.22, 1865
02/03/2020,20:34,121.23,121.24,121.23,121.23, 1100
02/03/2020,20:35,121.24,121.25,121.24,121.24, 1700
02/03/2020,20:36,121.26,121.27,121.26,121.26, 3000
02/03/2020,20:37,121.27,121.29,121.26,121.29, 2587
02/03/2020,20:38,121.28,121.37,121.27,121.37, 1767
02/03/2020,20:39,121.38,121.42,121.38,121.42, 2920
02/03/2020,20:40,121.42,121.48,121.4,121.48, 5448
02/03/2020,20:41,121.47,121.52,121.47,121.51, 1998
02/03/2020,20:42,121.53,121.53,121.48,121.49, 8553
02/03/2020,20:43,121.48,121.51,121.48,121.51, 3128
02/03/2020,20:44,121.51,121.52,121.47,121.49, 3560
02/03/2020,20:45,121.51,121.54,121.51,121.54, 2636
02/03/2020,20:46,121.54,121.59,121.53,121.59, 2700
02/03/2020,20:47,121.61,121.7,121.61,121.7, 2431
02/03/2020,20:48,121.7,121.73,121.7,121.73, 3164
02/03/2020,20:49,121.74,121.81,121.74,121.77, 3980
02/03/2020,20:50,121.78,121.8,121.76,121.79, 1783
02/03/2020,20:51,121.8,121.81,121.77,121.79, 4532
02/03/2020,20:52,121.78,121.79,121.76,121.79, 4337
02/03/2020,20:53,121.8,121.81,121.77,121.81, 1214
02/03/2020,20:54,121.82,121.86,121.81,121.86, 3012
02/03/2020,20:55,121.86,121.86,121.8,121.82, 4581
02/03/2020,20:56,121.82,121.85,121.81,121.83, 2823
02/03/2020,20:57,121.83,121.89,121.81,121.89, 4248
02/03/2020,20:58,121.92,121.93,121.81,121.82, 5250
02/03/2020,20:59,121.82,121.86,121.78,121.78, 2148
02/03/2020,21:00,121.77,121.78,121.76,121.76, 1731
02/03/2020,21:01,121.78,121.83,121.77,121.79, 1700
02/03/2020,21:02,121.8,121.87,121.8,121.87, 1400
02/03/2020,21:03,121.86,121.88,121.86,121.86, 3960
02/03/2020,21:04,121.86,121.88,121.86,121.86, 1800
02/03/2020,21:05,121.86,121.96,121.86,121.94, 2464
02/03/2020,21:06,121.97,121.97,121.9,121.93, 4154
02/03/2020,21:07,121.95,121.96,121.9,121.92, 2943
02/03/2020,21:08,121.92,122.01,121.92,122.01, 4431
02/03/2020,21:09,121.99,122.01,121.99,122, 1827
02/03/2020,21:10,121.99,122.01,121.97,121.99, 3415
02/03/2020,21:11,121.99,122.04,121.99,122.04, 1320
02/03/2020,21:12,122.01,122.03,121.97,121.98, 7118
02/03/2020,21:13,121.98,121.98,121.84,121.84, 3000
02/03/2020,21:14,121.83,121.9,121.83,121.89, 3242
02/03/2020,21:15,121.87,121.92,121.87,121.92, 1308
02/03/2020,21:16,121.9,121.94,121.9,121.93, 3401
02/03/2020,21:17,121.91,121.95,121.91,121.95, 1430
02/03/2020,21:18,121.92,121.99,121.88,121.88, 4542
02/03/2020,21:19,121.87,121.9,121.84,121.9, 2714
02/03/2020,21:20,121.9,121.95,121.89,121.95, 2183
02/03/2020,21:21,121.96,121.97,121.94,121.97, 1045
02/03/2020,21:22,121.97,122,121.93,121.99, 3154
02/03/2020,21:23,121.99,121.99,121.97,121.98, 1640
02/03/2020,21:24,121.97,122.02,121.96,122.02, 4019
02/03/2020,21:25,122.04,122.05,121.96,121.96, 5150
02/03/2020,21:26,121.97,122.01,121.97,121.98, 2882
02/03/2020,21:27,121.98,121.98,121.91,121.94, 1800
02/03/2020,21:28,121.93,122,121.93,122, 1170
02/03/2020,21:29,121.98,122.01,121.96,122, 2274
02/03/2020,21:30,122,122,121.99,122, 2522
02/03/2020,21:31,122,122.05,122,122, 3538
02/03/2020,21:32,122.01,122.04,121.98,122.04, 3670
02/03/2020,21:33,122.02,122.03,121.96,121.99, 6054
02/03/2020,21:34,121.99,121.99,121.88,121.92, 4201
02/03/2020,21:35,121.92,121.99,121.9,121.99, 4360
02/03/2020,21:36,121.98,122.05,121.97,122.03, 4380
02/03/2020,21:37,122,122,121.94,121.94, 701
02/03/2020,21:38,121.95,121.98,121.87,121.87, 8164
02/03/2020,21:39,121.87,121.91,121.85,121.91, 3537
02/03/2020,21:40,121.93,121.93,121.86,121.86, 2582
02/03/2020,21:41,121.86,121.89,121.82,121.89, 4566
02/03/2020,21:42,121.89,121.9,121.88,121.9, 3300
02/03/2020,21:43,121.89,121.89,121.86,121.88, 1710
02/03/2020,21:44,121.87,121.89,121.82,121.82, 3853
02/03/2020,21:45,121.82,121.88,121.79,121.79, 6912
02/03/2020,21:46,121.77,121.77,121.65,121.65, 3802
02/03/2020,21:47,121.65,121.68,121.59,121.67, 5498
02/03/2020,21:48,121.68,121.71,121.67,121.68, 4258
02/03/2020,21:49,121.67,121.7,121.57,121.64, 6198
02/03/2020,21:50,121.61,121.61,121.55,121.55, 3310
02/03/2020,21:51,121.55,121.6,121.5,121.56, 11853
02/03/2020,21:52,121.56,121.56,121.48,121.49, 12561
02/03/2020,21:53,121.49,121.58,121.45,121.55, 13311
02/03/2020,21:54,121.54,121.57,121.41,121.42, 11726
02/03/2020,21:55,121.42,121.44,121.36,121.44, 14405
02/03/2020,21:56,121.42,121.46,121.35,121.35, 13176
02/03/2020,21:57,121.35,121.43,121.28,121.35, 20983
02/03/2020,21:58,121.35,121.36,121.2,121.2, 26840
02/03/2020,21:59,121.22,121.33,121.19,121.24, 34987
02/03/2020,22:00,121.24,121.5,121.17,121.32, 87765
02/03/2020,22:01,121.31,121.41,121.3,121.34, 20300
02/03/2020,22:06,121.34,121.34,121.34,121.34, 307394
02/04/2020,15:31,122.84,122.95,122.83,122.83, 16017
02/04/2020,15:32,122.87,122.96,122.82,122.84, 500
02/04/2020,15:33,122.87,123.13,122.85,123.13, 2785
02/04/2020,15:34,123.25,123.43,123.24,123.32, 1300
02/04/2020,15:35,123.36,123.57,123.18,123.46, 15706
02/04/2020,15:36,123.47,123.58,123.37,123.46, 2300
02/04/2020,15:37,123.44,123.44,123.24,123.43, 3122
02/04/2020,15:38,123.49,123.49,123.36,123.43, 2500
02/04/2020,15:39,123.42,123.62,123.42,123.56, 1715
02/04/2020,15:40,123.59,123.59,123.45,123.5, 3130
02/04/2020,15:41,123.42,123.67,123.42,123.61, 2500
02/04/2020,15:42,123.73,123.73,123.52,123.55, 1100
02/04/2020,15:43,123.54,123.64,123.54,123.61, 1400
02/04/2020,15:44,123.61,123.64,123.48,123.55, 2951
02/04/2020,15:45,123.54,123.68,123.5,123.68, 2122
02/04/2020,15:46,123.63,123.83,123.63,123.8, 1400
02/04/2020,15:47,123.8,123.86,123.72,123.79, 6910
02/04/2020,15:48,123.78,123.84,123.74,123.8, 4358
02/04/2020,15:49,123.84,123.98,123.72,123.74, 4350
02/04/2020,15:50,123.79,123.79,123.61,123.68, 800
02/04/2020,15:51,123.66,123.73,123.55,123.64, 2805
02/04/2020,15:52,123.57,123.67,123.5,123.54, 3728
02/04/2020,15:53,123.53,123.53,123.47,123.52, 913
02/04/2020,15:54,123.56,123.61,123.5,123.56, 6481
02/04/2020,15:55,123.56,123.64,123.54,123.6, 1163
02/04/2020,15:56,123.66,123.68,123.57,123.57, 1902
02/04/2020,15:57,123.57,123.61,123.52,123.52, 1046
02/04/2020,15:58,123.54,123.55,123.34,123.37, 1900
02/04/2020,15:59,123.4,123.41,123.36,123.39, 1900
02/04/2020,16:00,123.39,123.42,123.3,123.3, 1500
02/04/2020,16:01,123.29,123.34,123.22,123.3, 2200
02/04/2020,16:02,123.33,123.36,123.29,123.32, 1300
02/04/2020,16:03,123.28,123.32,123.27,123.31, 1600
02/04/2020,16:04,123.34,123.35,123.28,123.28, 2277
02/04/2020,16:05,123.2,123.2,123.07,123.07, 900
02/04/2020,16:06,123.14,123.18,123,123.18, 5889
02/04/2020,16:07,123.11,123.23,123.1,123.19, 6384
02/04/2020,16:08,123.18,123.2,123.06,123.06, 3867
02/04/2020,16:09,123.12,123.19,123.09,123.15, 1307
02/04/2020,16:10,123.19,123.23,123.17,123.21, 1900
02/04/2020,16:11,123.2,123.23,123.12,123.12, 1950
02/04/2020,16:12,123.1,123.17,123.1,123.12, 8800
02/04/2020,16:13,123.15,123.15,122.95,122.96, 2473
02/04/2020,16:14,122.99,122.99,122.78,122.8, 4458
02/04/2020,16:15,122.81,122.9,122.73,122.89, 1600
02/04/2020,16:16,122.84,122.84,122.66,122.66, 1100
02/04/2020,16:17,122.72,122.74,122.61,122.61, 900
02/04/2020,16:18,122.69,122.74,122.53,122.53, 2200
02/04/2020,16:19,122.5,122.57,122.47,122.56, 2461
02/04/2020,16:20,122.56,122.56,122.51,122.55, 1900
02/04/2020,16:21,122.57,122.61,122.46,122.46, 2317
02/04/2020,16:22,122.45,122.45,122.39,122.42, 1300
02/04/2020,16:23,122.42,122.42,122.39,122.39, 2001
02/04/2020,16:24,122.39,122.39,122.27,122.35, 3608
02/04/2020,16:25,122.39,122.39,122.29,122.29, 4531
02/04/2020,16:26,122.32,122.38,122.28,122.3, 4517
02/04/2020,16:27,122.3,122.33,122.25,122.28, 3200
02/04/2020,16:28,122.29,122.33,122.26,122.31, 2501
02/04/2020,16:29,122.32,122.37,122.21,122.37, 8281
02/04/2020,16:30,122.39,122.39,122.28,122.39, 3376
02/04/2020,16:31,122.4,122.43,122.32,122.32, 2235
02/04/2020,16:32,122.32,122.41,122.32,122.38, 2376
02/04/2020,16:33,122.43,122.48,122.43,122.45, 1100
02/04/2020,16:34,122.44,122.54,122.43,122.49, 3089
02/04/2020,16:35,122.47,122.49,122.41,122.44, 4300
02/04/2020,16:36,122.41,122.49,122.39,122.39, 6700
02/04/2020,16:37,122.39,122.5,122.37,122.5, 3000
02/04/2020,16:38,122.49,122.6,122.49,122.5, 1250
02/04/2020,16:39,122.53,122.56,122.48,122.52, 8801
02/04/2020,16:40,122.55,122.58,122.49,122.49, 2600
02/04/2020,16:41,122.53,122.56,122.51,122.51, 2248
02/04/2020,16:42,122.48,122.5,122.4,122.43, 3800
02/04/2020,16:43,122.46,122.53,122.46,122.53, 434
02/04/2020,16:44,122.52,122.55,122.52,122.52, 2113
02/04/2020,16:45,122.51,122.56,122.5,122.55, 3612
02/04/2020,16:46,122.55,122.55,122.43,122.44, 3100
02/04/2020,16:47,122.48,122.48,122.47,122.47, 200
02/04/2020,16:48,122.48,122.51,122.48,122.51, 300
02/04/2020,16:49,122.51,122.51,122.46,122.46, 1486
02/04/2020,16:50,122.47,122.48,122.45,122.48, 500
02/04/2020,16:51,122.46,122.48,122.38,122.38, 1897
02/04/2020,16:52,122.39,122.42,122.38,122.42, 400
02/04/2020,16:53,122.38,122.38,122.33,122.33, 800
02/04/2020,16:54,122.3,122.3,122.24,122.24, 1563
02/04/2020,16:55,122.26,122.34,122.26,122.31, 1100
02/04/2020,16:56,122.37,122.37,122.34,122.37, 1121
02/04/2020,16:57,122.35,122.36,122.29,122.3, 2100
02/04/2020,16:57,122.28,122.28,122.26,122.26, 409
02/04/2020,16:59,122.23,122.25,122.23,122.25, 300
02/04/2020,17:00,122.23,122.24,122.21,122.21, 1663
02/04/2020,17:01,122.15,122.17,122.07,122.08, 3048
02/04/2020,17:02,122.1,122.1,121.97,121.98, 2673
02/04/2020,17:03,121.98,122.01,121.89,121.93, 2700
02/04/2020,17:04,121.95,121.95,121.74,121.74, 4697
02/04/2020,17:05,121.73,121.78,121.69,121.77, 3200
02/04/2020,17:06,121.68,121.77,121.65,121.77, 2300
02/04/2020,17:07,121.76,121.81,121.73,121.73, 1656
02/04/2020,17:08,121.7,121.75,121.62,121.62, 1500
02/04/2020,17:09,121.65,121.7,121.52,121.53, 2600
02/04/2020,17:10,121.52,121.59,121.52,121.55, 2255
02/04/2020,17:11,121.61,121.65,121.61,121.64, 700
02/04/2020,17:12,121.64,121.82,121.64,121.82, 13372
02/04/2020,17:13,121.76,121.76,121.72,121.73, 2000
02/04/2020,17:14,121.75,121.89,121.75,121.87, 1400
02/04/2020,17:15,121.92,121.98,121.92,121.94, 2852
02/04/2020,17:16,122.01,122.01,122.01,122.01, 300
02/04/2020,17:17,122.03,122.09,122.02,122.09, 1000
02/04/2020,17:18,122.07,122.07,121.91,121.94, 1900
02/04/2020,17:19,121.96,121.96,121.96,121.96, 601
02/04/2020,17:20,122.02,122.05,122.02,122.04, 926
02/04/2020,17:21,122.04,122.05,122.03,122.03, 1501
02/04/2020,17:22,122.03,122.06,121.97,122, 3050
02/04/2020,17:23,121.99,122.11,121.98,122.09, 2000
02/04/2020,17:24,122.1,122.27,122.1,122.27, 3041
02/04/2020,17:25,122.28,122.28,122.25,122.25, 1000
02/04/2020,17:26,122.23,122.28,122.21,122.26, 1700
02/04/2020,17:27,122.31,122.34,122.24,122.31, 1700
02/04/2020,17:28,122.29,122.32,122.29,122.29, 899
02/04/2020,17:29,122.32,122.32,122.29,122.29, 2062
02/04/2020,17:30,122.29,122.29,122.28,122.28, 731
02/04/2020,17:31,122.28,122.31,122.25,122.31, 1000
02/04/2020,17:32,122.31,122.31,122.28,122.28, 900
02/04/2020,17:33,122.29,122.36,122.29,122.34, 1778
02/04/2020,17:34,122.32,122.33,122.27,122.27, 1400
02/04/2020,17:35,122.26,122.26,122.24,122.25, 600
02/04/2020,17:36,122.24,122.27,122.16,122.19, 5025
02/04/2020,17:37,122.2,122.21,122.18,122.18, 500
02/04/2020,17:38,122.13,122.15,122.11,122.14, 1454
02/04/2020,17:39,122.17,122.25,122.17,122.25, 1385
02/04/2020,17:40,122.31,122.32,122.29,122.32, 1100
02/04/2020,17:41,122.32,122.32,122.28,122.28, 900
02/04/2020,17:42,122.27,122.29,122.21,122.21, 1722
02/04/2020,17:43,122.24,122.25,122.24,122.25, 200
02/04/2020,17:44,122.27,122.32,122.27,122.32, 719
02/04/2020,17:45,122.3,122.3,122.22,122.25, 2650
02/04/2020,17:46,122.27,122.28,122.22,122.24, 1239
02/04/2020,17:47,122.21,122.26,122.21,122.26, 706
02/04/2020,17:48,122.29,122.37,122.27,122.37, 3000
02/04/2020,17:49,122.35,122.35,122.23,122.23, 1558
02/04/2020,17:50,122.23,122.23,122.15,122.22, 2258
02/04/2020,17:51,122.2,122.23,122.18,122.2, 1200
02/04/2020,17:52,122.21,122.22,122.2,122.2, 500
02/04/2020,17:53,122.19,122.21,122.19,122.21, 555
02/04/2020,17:54,122.21,122.23,122.11,122.11, 1776
02/04/2020,17:55,122.14,122.14,122.07,122.07, 3609
02/04/2020,17:56,122.06,122.06,122.03,122.03, 1000
02/04/2020,17:57,122.05,122.1,122.02,122.02, 904
02/04/2020,17:58,121.97,121.97,121.97,121.97, 200
02/04/2020,17:59,121.99,122.01,121.97,121.98, 2103
02/04/2020,18:00,121.98,121.99,121.98,121.99, 318
02/04/2020,18:01,122.01,122.05,122.01,122.04, 1106
02/04/2020,18:02,122.03,122.06,122.03,122.05, 525
02/04/2020,18:03,122.07,122.09,122.06,122.07, 1368
02/04/2020,18:04,122.06,122.1,122.06,122.06, 2476
02/04/2020,18:05,122.07,122.12,122.07,122.11, 1760
02/04/2020,18:06,122.14,122.14,122.13,122.13, 678
02/04/2020,18:07,122.17,122.2,122.17,122.2, 300
02/04/2020,18:08,122.2,122.2,122.19,122.19, 200
02/04/2020,18:09,122.19,122.21,122.18,122.19, 2201
02/04/2020,18:10,122.19,122.21,122.19,122.21, 500
02/04/2020,18:11,122.23,122.24,122.22,122.24, 800
02/04/2020,18:12,122.27,122.34,122.27,122.34, 700
02/04/2020,18:13,122.32,122.32,122.3,122.31, 2363
02/04/2020,18:14,122.33,122.35,122.24,122.24, 1950
02/04/2020,18:15,122.22,122.22,122.21,122.21, 300
02/04/2020,18:16,122.22,122.22,122.2,122.22, 1861
02/04/2020,18:17,122.24,122.27,122.24,122.26, 1200
02/04/2020,18:18,122.26,122.27,122.23,122.26, 1000
02/04/2020,18:19,122.25,122.25,122.15,122.24, 3370
02/04/2020,18:20,122.3,122.31,122.21,122.21, 1300
02/04/2020,18:21,122.22,122.25,122.21,122.23, 719
02/04/2020,18:22,122.23,122.25,122.23,122.24, 1054
02/04/2020,18:23,122.23,122.27,122.22,122.26, 1188
02/04/2020,18:24,122.28,122.28,122.28,122.28, 300
02/04/2020,18:25,122.3,122.3,122.28,122.28, 800
02/04/2020,18:26,122.3,122.3,122.28,122.29, 5081
02/04/2020,18:27,122.29,122.3,122.29,122.29, 1600
02/04/2020,18:28,122.3,122.31,122.25,122.25, 9186
02/04/2020,18:29,122.25,122.28,122.25,122.27, 2000
02/04/2020,18:30,122.28,122.41,122.28,122.35, 6518
02/04/2020,18:31,122.33,122.33,122.32,122.32, 300
02/04/2020,18:32,122.33,122.33,122.31,122.31, 991
02/04/2020,18:33,122.31,122.31,122.29,122.29, 1110
02/04/2020,18:34,122.29,122.31,122.26,122.27, 2471
02/04/2020,18:35,122.28,122.31,122.28,122.28, 1000
02/04/2020,18:36,122.29,122.29,122.29,122.29, 400
02/04/2020,18:37,122.27,122.28,122.25,122.27, 2015
02/04/2020,18:38,122.29,122.29,122.26,122.26, 1120
02/04/2020,18:39,122.27,122.28,122.23,122.25, 1801
02/04/2020,18:40,122.25,122.27,122.25,122.25, 1530
02/04/2020,18:41,122.27,122.28,122.26,122.26, 300
02/04/2020,18:42,122.26,122.26,122.18,122.2, 1978
02/04/2020,18:43,122.22,122.22,122.2,122.2, 904
02/04/2020,18:44,122.2,122.21,122.2,122.21, 1600
02/04/2020,18:45,122.22,122.24,122.22,122.24, 900
02/04/2020,18:46,122.24,122.26,122.23,122.24, 2043
02/04/2020,18:47,122.24,122.26,122.24,122.25, 1000
02/04/2020,18:48,122.24,122.24,122.2,122.23, 2000
02/04/2020,18:49,122.23,122.23,122.22,122.22, 920
02/04/2020,18:50,122.22,122.22,122.18,122.18, 1823
02/04/2020,18:51,122.19,122.22,122.17,122.17, 1500
02/04/2020,18:52,122.17,122.19,122.12,122.12, 1859
02/04/2020,18:53,122.13,122.19,122.13,122.19, 700
02/04/2020,18:54,122.19,122.2,122.19,122.2, 613
02/04/2020,18:55,122.2,122.26,122.2,122.25, 1000
02/04/2020,18:56,122.27,122.34,122.27,122.31, 1273
02/04/2020,18:57,122.33,122.33,122.27,122.27, 2460
02/04/2020,18:58,122.28,122.32,122.24,122.29, 3800
02/04/2020,18:59,122.31,122.35,122.31,122.33, 846
02/04/2020,19:00,122.36,122.44,122.36,122.41, 1466
02/04/2020,19:00,122.44,122.44,122.44,122.44, 100
02/04/2020,19:02,122.43,122.49,122.43,122.47, 805
02/04/2020,19:03,122.47,122.47,122.39,122.4, 4938
02/04/2020,19:04,122.4,122.4,122.35,122.35, 754
02/04/2020,19:05,122.37,122.41,122.37,122.4, 1320
02/04/2020,19:06,122.4,122.4,122.37,122.38, 1200
02/04/2020,19:07,122.38,122.38,122.38,122.38, 100
02/04/2020,19:08,122.38,122.42,122.38,122.4, 5766
02/04/2020,19:09,122.4,122.41,122.4,122.4, 800
02/04/2020,19:10,122.41,122.44,122.4,122.44, 815
02/04/2020,19:11,122.45,122.46,122.45,122.45, 526
02/04/2020,19:12,122.45,122.48,122.45,122.48, 1120
02/04/2020,19:13,122.49,122.53,122.47,122.52, 4090
02/04/2020,19:14,122.51,122.51,122.41,122.43, 9068
02/04/2020,19:15,122.43,122.46,122.38,122.38, 3400
02/04/2020,19:16,122.37,122.38,122.33,122.37, 2803
02/04/2020,19:17,122.38,122.42,122.38,122.41, 1500
02/04/2020,19:18,122.41,122.45,122.41,122.45, 1045
02/04/2020,19:19,122.44,122.44,122.37,122.37, 1700
02/04/2020,19:20,122.39,122.45,122.39,122.44, 801
02/04/2020,19:21,122.45,122.45,122.42,122.43, 1530
02/04/2020,19:22,122.45,122.46,122.43,122.44, 3330
02/04/2020,19:23,122.43,122.44,122.42,122.42, 400
02/04/2020,19:24,122.43,122.43,122.39,122.42, 1500
02/04/2020,19:26,122.41,122.41,122.37,122.37, 1566
02/04/2020,19:27,122.37,122.37,122.25,122.26, 1861
02/04/2020,19:28,122.28,122.3,122.28,122.29, 500
02/04/2020,19:29,122.29,122.29,122.25,122.25, 1400
02/04/2020,19:30,122.25,122.25,122.24,122.25, 506
02/04/2020,19:31,122.23,122.28,122.23,122.26, 1664
02/04/2020,19:32,122.26,122.26,122.26,122.26, 700
02/04/2020,19:33,122.25,122.27,122.25,122.26, 1500
02/04/2020,19:34,122.27,122.37,122.27,122.35, 2200
02/04/2020,19:35,122.35,122.35,122.32,122.33, 1600
02/04/2020,19:36,122.36,122.36,122.36,122.36, 600
02/04/2020,19:37,122.36,122.36,122.36,122.36, 604
02/04/2020,19:38,122.36,122.43,122.36,122.4, 2412
02/04/2020,19:39,122.4,122.43,122.39,122.41, 1935
02/04/2020,19:40,122.43,122.43,122.42,122.42, 500
02/04/2020,19:41,122.42,122.45,122.39,122.45, 2290
02/04/2020,19:42,122.42,122.43,122.42,122.43, 600
02/04/2020,19:43,122.42,122.45,122.42,122.44, 1753
02/04/2020,19:44,122.43,122.45,122.43,122.44, 2296
02/04/2020,19:45,122.45,122.45,122.43,122.44, 2191
02/04/2020,19:46,122.45,122.45,122.44,122.44, 400
02/04/2020,19:47,122.45,122.46,122.44,122.45, 4477
02/04/2020,19:48,122.45,122.5,122.45,122.48, 4729
02/04/2020,19:49,122.45,122.48,122.45,122.48, 200
02/04/2020,19:50,122.45,122.45,122.41,122.41, 1753
02/04/2020,19:51,122.4,122.42,122.37,122.42, 1876
02/04/2020,19:52,122.41,122.43,122.38,122.42, 4550
02/04/2020,19:53,122.42,122.44,122.41,122.41, 6930
02/04/2020,19:54,122.4,122.43,122.4,122.41, 5745
02/04/2020,19:55,122.41,122.43,122.4,122.41, 2743
02/04/2020,19:56,122.42,122.43,122.41,122.41, 2700
02/04/2020,19:57,122.42,122.42,122.41,122.41, 600
02/04/2020,19:58,122.42,122.42,122.41,122.41, 2900
02/04/2020,19:59,122.4,122.43,122.4,122.43, 6181
02/04/2020,20:00,122.43,122.43,122.39,122.42, 2018
02/04/2020,20:01,122.4,122.4,122.37,122.38, 1146
02/04/2020,20:02,122.36,122.42,122.35,122.42, 2816
02/04/2020,20:03,122.41,122.43,122.38,122.38, 1800
02/04/2020,20:04,122.37,122.45,122.37,122.45, 1917
02/04/2020,20:05,122.45,122.46,122.42,122.42, 4688
02/04/2020,20:06,122.42,122.42,122.4,122.42, 1623
02/04/2020,20:07,122.41,122.41,122.41,122.41, 731
02/04/2020,20:08,122.4,122.44,122.4,122.42, 1300
02/04/2020,20:09,122.42,122.42,122.37,122.41, 1942
02/04/2020,20:10,122.41,122.42,122.39,122.42, 2400
02/04/2020,20:11,122.42,122.45,122.41,122.43, 3794
02/04/2020,20:12,122.43,122.47,122.41,122.47, 1300
02/04/2020,20:13,122.46,122.47,122.44,122.46, 4700
02/04/2020,20:14,122.45,122.45,122.43,122.45, 4539
02/04/2020,20:15,122.44,122.46,122.44,122.45, 2400
02/04/2020,20:16,122.44,122.46,122.43,122.46, 3110
02/04/2020,20:17,122.45,122.45,122.44,122.45, 3100
02/04/2020,20:18,122.44,122.45,122.44,122.45, 1370
02/04/2020,20:19,122.45,122.46,122.43,122.44, 6867
02/04/2020,20:20,122.43,122.45,122.43,122.45, 2733
02/04/2020,20:21,122.44,122.45,122.41,122.43, 2210
02/04/2020,20:22,122.44,122.45,122.42,122.45, 2197
02/04/2020,20:23,122.44,122.47,122.44,122.47, 1506
02/04/2020,20:24,122.45,122.55,122.45,122.55, 2200
02/04/2020,20:25,122.53,122.55,122.5,122.5, 2050
02/04/2020,20:26,122.47,122.47,122.44,122.44, 8391
02/04/2020,20:27,122.41,122.43,122.41,122.41, 900
02/04/2020,20:28,122.41,122.44,122.41,122.42, 2918
02/04/2020,20:29,122.42,122.45,122.41,122.42, 4248
02/04/2020,20:30,122.42,122.49,122.42,122.44, 5180
02/04/2020,20:31,122.44,122.45,122.41,122.45, 1719
02/04/2020,20:32,122.44,122.48,122.44,122.48, 800
02/04/2020,20:33,122.45,122.5,122.45,122.5, 1730
02/04/2020,20:34,122.49,122.49,122.41,122.41, 2130
02/04/2020,20:35,122.4,122.41,122.37,122.4, 1700
02/04/2020,20:36,122.38,122.44,122.38,122.43, 1178
02/04/2020,20:37,122.44,122.45,122.44,122.45, 307
02/04/2020,20:38,122.46,122.5,122.46,122.5, 1300
02/04/2020,20:39,122.49,122.51,122.48,122.5, 4100
02/04/2020,20:40,122.49,122.5,122.49,122.5, 4898
02/04/2020,20:41,122.5,122.54,122.49,122.5, 16776
02/04/2020,20:42,122.55,122.59,122.53,122.56, 7520
02/04/2020,20:43,122.56,122.65,122.56,122.65, 1913
02/04/2020,20:44,122.63,122.63,122.59,122.6, 9719
02/04/2020,20:45,122.62,122.62,122.58,122.6, 4392
02/04/2020,20:46,122.6,122.63,122.6,122.6, 10418
02/04/2020,20:47,122.6,122.61,122.59,122.6, 4924
02/04/2020,20:48,122.59,122.64,122.59,122.64, 7447
02/04/2020,20:49,122.66,122.74,122.66,122.74, 1518
02/04/2020,20:50,122.73,122.78,122.65,122.65, 10716
02/04/2020,20:51,122.63,122.67,122.63,122.64, 4667
02/04/2020,20:52,122.64,122.66,122.63,122.65, 2389
02/04/2020,20:53,122.64,122.66,122.64,122.64, 3611
02/04/2020,20:54,122.63,122.64,122.62,122.63, 1361
02/04/2020,20:55,122.64,122.64,122.62,122.63, 3047
02/04/2020,20:56,122.63,122.66,122.61,122.65, 8107
02/04/2020,20:57,122.65,122.66,122.64,122.65, 5873
02/04/2020,20:58,122.65,122.66,122.63,122.63, 4179
02/04/2020,20:59,122.64,122.66,122.64,122.65, 6674
02/04/2020,21:00,122.65,122.66,122.64,122.65, 3185
02/04/2020,21:01,122.64,122.66,122.62,122.65, 6577
02/04/2020,21:02,122.65,122.66,122.65,122.65, 4974
02/04/2020,21:03,122.66,122.66,122.62,122.62, 3864
02/04/2020,21:04,122.62,122.71,122.6,122.6, 12284
02/04/2020,21:05,122.6,122.64,122.59,122.64, 6257
02/04/2020,21:06,122.66,122.78,122.64,122.78, 4722
02/04/2020,21:07,122.79,122.81,122.68,122.68, 7900
02/04/2020,21:08,122.69,122.7,122.68,122.69, 4147
02/04/2020,21:09,122.69,122.7,122.68,122.68, 6672
02/04/2020,21:10,122.68,122.72,122.68,122.7, 8460
02/04/2020,21:11,122.7,122.71,122.69,122.7, 6066
02/04/2020,21:12,122.69,122.69,122.68,122.69, 1000
02/04/2020,21:13,122.69,122.71,122.68,122.69, 3893
02/04/2020,21:14,122.67,122.71,122.67,122.7, 4123
02/04/2020,21:15,122.69,122.81,122.66,122.79, 8872
02/04/2020,21:16,122.8,122.8,122.7,122.7, 24431
02/04/2020,21:17,122.69,122.7,122.61,122.67, 3624
02/04/2020,21:18,122.68,122.71,122.67,122.7, 5628
02/04/2020,21:19,122.69,122.7,122.68,122.7, 2800
02/04/2020,21:20,122.69,122.71,122.69,122.7, 15418
02/04/2020,21:21,122.7,122.71,122.69,122.7, 9739
02/04/2020,21:22,122.7,122.72,122.69,122.7, 9022
02/04/2020,21:23,122.69,122.72,122.69,122.7, 8059
02/04/2020,21:24,122.71,122.71,122.69,122.69, 19289
02/04/2020,21:25,122.69,122.71,122.67,122.67, 7393
02/04/2020,21:26,122.67,122.71,122.67,122.7, 3690
02/04/2020,21:27,122.7,122.7,122.68,122.69, 4365
02/04/2020,21:28,122.68,122.7,122.65,122.7, 6380
02/04/2020,21:29,122.71,122.8,122.68,122.75, 7192
02/04/2020,21:30,122.76,122.76,122.72,122.72, 1320
02/04/2020,21:31,122.7,122.7,122.64,122.68, 5952
02/04/2020,21:32,122.65,122.8,122.64,122.8, 4036
02/04/2020,21:33,122.83,122.89,122.82,122.86, 4910
02/04/2020,21:34,122.87,122.9,122.79,122.8, 10693
02/04/2020,21:35,122.78,122.8,122.78,122.8, 4931
02/04/2020,21:36,122.78,122.78,122.72,122.74, 14345
02/04/2020,21:37,122.71,122.74,122.71,122.74, 8113
02/04/2020,21:38,122.74,122.74,122.73,122.73, 13707
02/04/2020,21:39,122.73,122.74,122.69,122.69, 8798
02/04/2020,21:40,122.66,122.72,122.66,122.71, 2762
02/04/2020,21:41,122.7,122.71,122.63,122.64, 6316
02/04/2020,21:42,122.6,122.72,122.6,122.63, 4763
02/04/2020,21:43,122.65,122.65,122.6,122.62, 4646
02/04/2020,21:44,122.62,122.68,122.6,122.68, 6333
02/04/2020,21:45,122.68,122.68,122.65,122.67, 6306
02/04/2020,21:46,122.66,122.66,122.61,122.63, 7906
02/04/2020,21:47,122.63,122.63,122.6,122.62, 6857
02/04/2020,21:48,122.62,122.64,122.6,122.64, 12957
02/04/2020,21:49,122.65,122.81,122.64,122.81, 3600
02/04/2020,21:50,122.81,122.81,122.68,122.69, 13108
02/04/2020,21:51,122.68,122.7,122.63,122.7, 10928
02/04/2020,21:52,122.7,122.7,122.66,122.66, 10603
02/04/2020,21:53,122.66,122.66,122.62,122.62, 9637
02/04/2020,21:54,122.64,122.64,122.57,122.63, 9347
02/04/2020,21:55,122.61,122.63,122.58,122.59, 8502
02/04/2020,21:56,122.59,122.59,122.48,122.5, 14722
02/04/2020,21:57,122.51,122.57,122.49,122.57, 15242
02/04/2020,21:58,122.57,122.61,122.56,122.58, 18654
02/04/2020,21:59,122.59,122.63,122.54,122.59, 17150
02/04/2020,22:00,122.59,122.61,122.55,122.55, 31683
02/04/2020,22:00,122.57,122.57,122.48,122.52, 21262
02/04/2020,22:06,122.53,122.53,122.53,122.53, 319306
02/05/2020,15:31,123.59,123.59,123.59,123.59, 9833
02/05/2020,15:32,123.19,123.68,123.19,123.5, 1100
02/05/2020,15:32,123.46,123.46,123.38,123.38, 300
02/05/2020,15:34,123.24,123.24,123.24,123.24, 100
02/05/2020,15:35,123.28,123.44,123.24,123.44, 1214
02/05/2020,15:36,123.55,123.55,123.33,123.5, 4514
02/05/2020,15:37,123.5,123.57,123.41,123.56, 3400
02/05/2020,15:38,123.5,123.5,123.37,123.37, 4200
02/05/2020,15:39,123.32,123.32,123.32,123.32, 100
02/05/2020,15:40,123.24,123.24,123.07,123.07, 713
02/05/2020,15:41,123.17,123.24,123.09,123.24, 700
02/05/2020,15:41,123.27,123.27,123.27,123.27, 100
02/05/2020,15:43,123.27,123.35,123.27,123.33, 1600
02/05/2020,15:44,123.37,123.37,123.3,123.3, 1534
02/05/2020,15:45,123.25,123.3,123.19,123.2, 2000
02/05/2020,15:46,123.23,123.23,123.22,123.22, 300
02/05/2020,15:47,123.26,123.26,122.94,122.98, 2866
02/05/2020,15:48,123,123.03,123,123.03, 1000
02/05/2020,15:49,123.09,123.17,123.09,123.16, 1200
02/05/2020,15:50,123.17,123.28,123.16,123.24, 2551
02/05/2020,15:51,123.2,123.42,123.15,123.36, 4238
02/05/2020,15:52,123.4,123.48,123.38,123.48, 712
02/05/2020,15:53,123.44,123.44,123.32,123.36, 1100
02/05/2020,15:54,123.27,123.27,123.08,123.1, 1000
02/05/2020,15:55,123.06,123.1,122.96,122.96, 2360
02/05/2020,15:56,123.02,123.1,122.93,122.93, 4300
02/05/2020,15:57,122.95,123.02,122.95,122.99, 1627
02/05/2020,15:58,122.99,123.06,122.96,123.06, 3850
02/05/2020,15:59,123.02,123.12,123.02,123.07, 1100
02/05/2020,16:00,123.07,123.07,123.02,123.02, 753
02/05/2020,16:01,123,123,122.73,122.95, 2215
02/05/2020,16:02,122.97,123.09,122.97,123.09, 2473
02/05/2020,16:03,123.06,123.06,122.99,122.99, 1100
02/05/2020,16:04,122.96,123.03,122.96,123.03, 1030
02/05/2020,16:05,123.06,123.08,122.99,123.08, 4526
02/05/2020,16:06,123.05,123.14,123.05,123.14, 1000
02/05/2020,16:07,123.14,123.16,123.1,123.12, 2011
02/05/2020,16:08,123.07,123.1,123.02,123.09, 4060
02/05/2020,16:09,123.1,123.14,123.03,123.09, 3194
02/05/2020,16:10,123.14,123.15,123.12,123.15, 559
02/05/2020,16:11,123.19,123.22,123.19,123.22, 400
02/05/2020,16:12,123.22,123.25,123.18,123.18, 5220
02/05/2020,16:13,123.22,123.23,123.16,123.19, 2932
02/05/2020,16:14,123.19,123.23,123.18,123.18, 2944
02/05/2020,16:15,123.18,123.18,123.09,123.13, 2001
02/05/2020,16:16,123.13,123.16,123.12,123.16, 1787
02/05/2020,16:17,123.11,123.15,123.04,123.15, 2500
02/05/2020,16:18,123.18,123.18,123.06,123.09, 2727
02/05/2020,16:19,123.03,123.07,123.02,123.04, 2237
02/05/2020,16:20,123.02,123.02,122.98,122.98, 1998
02/05/2020,16:21,122.97,123.08,122.97,123.08, 1510
02/05/2020,16:22,123.07,123.14,123.07,123.12, 1000
02/05/2020,16:23,123.13,123.13,123.09,123.13, 2081
02/05/2020,16:24,123.13,123.17,123.11,123.12, 2111
02/05/2020,16:25,123.12,123.18,123.09,123.17, 2100
02/05/2020,16:26,123.17,123.19,123.11,123.11, 2966
02/05/2020,16:27,123.12,123.12,123.04,123.04, 1531
02/05/2020,16:28,123.02,123.06,122.92,122.94, 2825
02/05/2020,16:29,122.97,123,122.81,122.81, 5929
02/05/2020,16:30,122.81,122.88,122.8,122.88, 2454
02/05/2020,16:31,122.9,122.92,122.73,122.73, 8201
02/05/2020,16:32,122.76,122.77,122.72,122.75, 3000
02/05/2020,16:33,122.73,122.82,122.73,122.79, 2520
02/05/2020,16:34,122.8,122.82,122.79,122.79, 2352
02/05/2020,16:35,122.8,122.82,122.77,122.81, 5300
02/05/2020,16:36,122.82,122.85,122.69,122.69, 7431
02/05/2020,16:37,122.75,122.75,122.68,122.71, 5322
02/05/2020,16:38,122.75,122.87,122.72,122.85, 3770
02/05/2020,16:39,122.83,122.83,122.72,122.77, 3312
02/05/2020,16:40,122.75,122.76,122.72,122.72, 2788
02/05/2020,16:41,122.71,122.77,122.7,122.77, 1890
02/05/2020,16:42,122.79,122.82,122.78,122.81, 1536
02/05/2020,16:42,122.81,122.84,122.81,122.82, 1900
02/05/2020,16:44,122.84,122.87,122.81,122.82, 4019
02/05/2020,16:45,122.78,122.81,122.78,122.78, 1678
02/05/2020,16:46,122.77,122.95,122.77,122.94, 3350
02/05/2020,16:47,123.02,123.05,123.01,123.01, 900
02/05/2020,16:48,122.99,123.03,122.98,123.03, 2305
02/05/2020,16:49,123,123.02,123,123.02, 603
02/05/2020,16:50,123.02,123.14,123.02,123.14, 1063
02/05/2020,16:51,123.12,123.23,123.09,123.23, 918
02/05/2020,16:52,123.18,123.18,123.16,123.16, 305
02/05/2020,16:53,123.19,123.28,123.19,123.25, 1427
02/05/2020,16:54,123.26,123.36,123.24,123.36, 1600
02/05/2020,16:55,123.36,123.4,123.32,123.4, 1500
02/05/2020,16:56,123.43,123.43,123.31,123.31, 2256
02/05/2020,16:57,123.35,123.37,123.33,123.35, 2213
02/05/2020,16:58,123.33,123.36,123.33,123.34, 4254
02/05/2020,16:59,123.34,123.38,123.34,123.38, 978
02/05/2020,17:00,123.42,123.42,123.41,123.42, 2400
02/05/2020,17:00,123.42,123.42,123.42,123.42, 200
02/05/2020,17:03,123.51,123.51,123.41,123.43, 1733
02/05/2020,17:04,123.43,123.44,123.41,123.44, 1800
02/05/2020,17:05,123.45,123.46,123.39,123.41, 1800
02/05/2020,17:06,123.43,123.43,123.27,123.33, 3800
02/05/2020,17:07,123.3,123.31,123.22,123.31, 1800
02/05/2020,17:08,123.29,123.36,123.28,123.36, 1100
02/05/2020,17:10,123.39,123.39,123.39,123.39, 100
02/05/2020,17:11,123.39,123.39,123.29,123.34, 1704
02/05/2020,17:12,123.35,123.4,123.35,123.4, 1700
02/05/2020,17:13,123.4,123.41,123.39,123.39, 3800
02/05/2020,17:14,123.39,123.41,123.38,123.38, 4275
02/05/2020,17:17,123.37,123.37,123.27,123.32, 1610
02/05/2020,17:18,123.32,123.4,123.32,123.4, 2252
02/05/2020,17:19,123.4,123.4,123.39,123.39, 2044
02/05/2020,17:20,123.39,123.41,123.39,123.39, 2750
02/05/2020,17:21,123.38,123.4,123.36,123.4, 2220
02/05/2020,17:21,123.39,123.49,123.39,123.48, 4300
02/05/2020,17:23,123.49,123.51,123.48,123.51, 1517
02/05/2020,17:24,123.52,123.55,123.45,123.55, 4426
02/05/2020,17:25,123.57,123.61,123.56,123.61, 600
02/05/2020,17:26,123.57,123.57,123.49,123.51, 4427
02/05/2020,17:27,123.51,123.55,123.51,123.54, 8943
02/05/2020,17:28,123.55,123.61,123.55,123.61, 700
02/05/2020,17:29,123.61,123.61,123.61,123.61, 800
02/05/2020,17:30,123.61,123.72,123.61,123.71, 2651
02/05/2020,17:31,123.7,123.72,123.6,123.6, 2786
02/05/2020,17:32,123.61,123.68,123.59,123.67, 1891
02/05/2020,17:33,123.67,123.73,123.67,123.72, 1000
02/05/2020,17:34,123.71,123.77,123.71,123.76, 1007
02/05/2020,17:35,123.75,123.8,123.75,123.79, 1503
02/05/2020,17:36,123.79,123.82,123.76,123.82, 900
02/05/2020,17:37,123.8,123.82,123.8,123.82, 300
02/05/2020,17:38,123.89,123.89,123.82,123.82, 2369
02/05/2020,17:39,123.8,123.87,123.8,123.83, 1063
02/05/2020,17:40,123.83,123.83,123.8,123.83, 859
02/05/2020,17:41,123.83,123.83,123.79,123.79, 1851
02/05/2020,17:42,123.77,123.79,123.76,123.79, 1273
02/05/2020,17:43,123.82,123.84,123.82,123.84, 427
02/05/2020,17:44,123.84,123.89,123.84,123.89, 600
02/05/2020,17:45,123.89,123.89,123.79,123.79, 4410
02/05/2020,17:46,123.79,123.79,123.75,123.75, 1403
02/05/2020,17:47,123.76,123.76,123.75,123.76, 1927
02/05/2020,17:48,123.77,123.81,123.76,123.79, 1209
02/05/2020,17:49,123.79,123.8,123.78,123.8, 3600
02/05/2020,17:50,123.79,123.8,123.78,123.78, 2000
02/05/2020,17:51,123.77,123.77,123.67,123.69, 11775
02/05/2020,17:52,123.68,123.69,123.63,123.65, 3913
02/05/2020,17:53,123.64,123.65,123.6,123.63, 4057
02/05/2020,17:54,123.62,123.64,123.6,123.63, 7809
02/05/2020,17:55,123.62,123.62,123.61,123.61, 1200
02/05/2020,17:56,123.61,123.64,123.6,123.6, 4013
02/05/2020,17:57,123.6,123.6,123.58,123.58, 1100
02/05/2020,17:58,123.57,123.57,123.52,123.54, 1918
02/05/2020,17:59,123.52,123.52,123.48,123.49, 1100
02/05/2020,18:00,123.49,123.51,123.49,123.51, 1300
02/05/2020,18:01,123.51,123.54,123.51,123.54, 1333
02/05/2020,18:02,123.54,123.63,123.54,123.62, 1200
02/05/2020,18:03,123.63,123.64,123.63,123.64, 816
02/05/2020,18:04,123.69,123.69,123.63,123.63, 2739
02/05/2020,18:05,123.65,123.72,123.65,123.72, 701
02/05/2020,18:06,123.72,123.72,123.63,123.63, 2600
02/05/2020,18:07,123.65,123.66,123.64,123.66, 1478
02/05/2020,18:08,123.65,123.65,123.62,123.65, 3341
02/05/2020,18:09,123.63,123.63,123.63,123.63, 203
02/05/2020,18:10,123.64,123.66,123.64,123.65, 1093
02/05/2020,18:11,123.65,123.65,123.61,123.61, 2165
02/05/2020,18:12,123.62,123.62,123.59,123.6, 1500
02/05/2020,18:13,123.61,123.65,123.61,123.65, 1652
02/05/2020,18:14,123.65,123.65,123.64,123.65, 3600
02/05/2020,18:15,123.65,123.65,123.65,123.65, 900
02/05/2020,18:16,123.65,123.65,123.62,123.63, 2146
02/05/2020,18:17,123.64,123.64,123.59,123.6, 5894
02/05/2020,18:18,123.6,123.6,123.59,123.6, 1850
02/05/2020,18:19,123.6,123.6,123.6,123.6, 3515
02/05/2020,18:20,123.59,123.6,123.59,123.59, 6386
02/05/2020,18:21,123.59,123.6,123.59,123.6, 1241
02/05/2020,18:22,123.6,123.6,123.54,123.56, 2651
02/05/2020,18:23,123.59,123.59,123.58,123.58, 601
02/05/2020,18:24,123.59,123.61,123.59,123.61, 2708
02/05/2020,18:25,123.59,123.6,123.57,123.6, 2950
02/05/2020,18:26,123.6,123.61,123.59,123.59, 3065
02/05/2020,18:27,123.6,123.6,123.58,123.58, 1499
02/05/2020,18:28,123.59,123.62,123.58,123.58, 4048
02/05/2020,18:29,123.59,123.59,123.57,123.57, 678
02/05/2020,18:30,123.56,123.57,123.52,123.52, 1300
02/05/2020,18:31,123.52,123.56,123.51,123.56, 1100
02/05/2020,18:32,123.55,123.55,123.5,123.53, 1403
02/05/2020,18:33,123.52,123.55,123.52,123.55, 500
02/05/2020,18:34,123.57,123.57,123.57,123.57, 300
02/05/2020,18:35,123.56,123.57,123.55,123.57, 1003
02/05/2020,18:36,123.57,123.57,123.57,123.57, 800
02/05/2020,18:37,123.58,123.58,123.58,123.58, 100
02/05/2020,18:38,123.57,123.61,123.57,123.59, 3300
02/05/2020,18:39,123.6,123.6,123.6,123.6, 2501
02/05/2020,18:40,123.6,123.6,123.57,123.57, 1850
02/05/2020,18:41,123.58,123.58,123.55,123.55, 2000
02/05/2020,18:42,123.55,123.55,123.53,123.53, 901
02/05/2020,18:43,123.52,123.54,123.51,123.51, 1974
02/05/2020,18:44,123.52,123.55,123.52,123.55, 1107
02/05/2020,18:45,123.55,123.55,123.51,123.52, 1124
02/05/2020,18:46,123.52,123.53,123.52,123.53, 614
02/05/2020,18:47,123.53,123.54,123.53,123.53, 1188
02/05/2020,18:48,123.54,123.55,123.54,123.54, 1205
02/05/2020,18:49,123.55,123.55,123.54,123.54, 1101
02/05/2020,18:49,123.55,123.55,123.55,123.55, 441
02/05/2020,18:51,123.55,123.55,123.55,123.55, 522
02/05/2020,18:52,123.55,123.55,123.52,123.52, 2037
02/05/2020,18:53,123.52,123.52,123.51,123.51, 1215
02/05/2020,18:53,123.52,123.52,123.51,123.51, 541
02/05/2020,18:55,123.52,123.52,123.46,123.48, 2000
02/05/2020,18:56,123.47,123.49,123.47,123.48, 700
02/05/2020,18:57,123.47,123.49,123.46,123.46, 1600
02/05/2020,18:57,123.47,123.47,123.47,123.47, 700
02/05/2020,18:59,123.48,123.5,123.48,123.5, 1117
02/05/2020,19:00,123.48,123.5,123.48,123.5, 1053
02/05/2020,19:01,123.5,123.52,123.49,123.49, 2307
02/05/2020,19:02,123.48,123.5,123.48,123.5, 700
02/05/2020,19:02,123.51,123.51,123.51,123.51, 100
02/05/2020,19:04,123.52,123.54,123.52,123.54, 700
02/05/2020,19:05,123.54,123.55,123.52,123.52, 3177
02/05/2020,19:06,123.55,123.55,123.55,123.55, 800
02/05/2020,19:06,123.55,123.58,123.55,123.58, 890
02/05/2020,19:08,123.59,123.59,123.58,123.58, 1413
02/05/2020,19:09,123.59,123.59,123.59,123.59, 100
02/05/2020,19:10,123.59,123.6,123.59,123.59, 2400
02/05/2020,19:11,123.59,123.59,123.56,123.56, 1100
02/05/2020,19:12,123.57,123.62,123.57,123.62, 2592
02/05/2020,19:13,123.65,123.65,123.64,123.64, 300
02/05/2020,19:13,123.62,123.62,123.6,123.6, 1429
02/05/2020,19:14,123.61,123.61,123.61,123.61, 100
02/05/2020,19:16,123.6,123.6,123.58,123.59, 1720
02/05/2020,19:17,123.59,123.59,123.54,123.54, 2427
02/05/2020,19:18,123.53,123.58,123.53,123.58, 1100
02/05/2020,19:19,123.59,123.59,123.58,123.58, 1124
02/05/2020,19:20,123.58,123.58,123.58,123.58, 100
02/05/2020,19:21,123.59,123.62,123.59,123.6, 1600
02/05/2020,19:22,123.59,123.6,123.59,123.6, 700
02/05/2020,19:23,123.61,123.64,123.61,123.64, 1900
02/05/2020,19:24,123.64,123.69,123.64,123.69, 1703
02/05/2020,19:25,123.72,123.73,123.72,123.72, 300
02/05/2020,19:26,123.73,123.74,123.67,123.67, 2629
02/05/2020,19:27,123.68,123.7,123.64,123.64, 2100
02/05/2020,19:28,123.64,123.65,123.63,123.63, 1696
02/05/2020,19:29,123.63,123.64,123.62,123.64, 1300
02/05/2020,19:30,123.63,123.63,123.62,123.62, 400
02/05/2020,19:31,123.63,123.64,123.61,123.61, 1494
02/05/2020,19:32,123.6,123.61,123.6,123.61, 861
02/05/2020,19:33,123.61,123.62,123.61,123.62, 1509
02/05/2020,19:34,123.61,123.61,123.61,123.61, 1500
02/05/2020,19:35,123.6,123.62,123.6,123.6, 1233
02/05/2020,19:36,123.6,123.6,123.59,123.59, 961
02/05/2020,19:37,123.58,123.59,123.58,123.59, 1700
02/05/2020,19:38,123.58,123.58,123.55,123.55, 1798
02/05/2020,19:39,123.56,123.58,123.56,123.57, 696
02/05/2020,19:39,123.58,123.58,123.57,123.57, 600
02/05/2020,19:41,123.59,123.6,123.59,123.6, 700
02/05/2020,19:42,123.59,123.61,123.58,123.58, 4243
02/05/2020,19:43,123.6,123.62,123.58,123.59, 7530
02/05/2020,19:44,123.58,123.6,123.57,123.58, 2920
02/05/2020,19:45,123.58,123.61,123.58,123.59, 7864
02/05/2020,19:46,123.59,123.67,123.59,123.67, 4491
02/05/2020,19:47,123.66,123.67,123.63,123.63, 1100
02/05/2020,19:48,123.63,123.66,123.63,123.63, 1400
02/05/2020,19:49,123.63,123.65,123.62,123.64, 2154
02/05/2020,19:50,123.63,123.65,123.63,123.64, 400
02/05/2020,19:51,123.65,123.66,123.63,123.65, 1300
02/05/2020,19:52,123.66,123.66,123.66,123.66, 1000
02/05/2020,19:53,123.68,123.68,123.64,123.64, 1102
02/05/2020,19:54,123.65,123.66,123.63,123.64, 2472
02/05/2020,19:55,123.64,123.66,123.64,123.64, 1500
02/05/2020,19:56,123.63,123.66,123.6,123.66, 2577
02/05/2020,19:57,123.66,123.66,123.63,123.63, 1747
02/05/2020,19:58,123.66,123.67,123.63,123.67, 3505
02/05/2020,19:59,123.67,123.67,123.65,123.65, 900
02/05/2020,20:00,123.65,123.65,123.61,123.62, 2206
02/05/2020,20:01,123.64,123.64,123.62,123.62, 1000
02/05/2020,20:02,123.62,123.62,123.62,123.62, 300
02/05/2020,20:03,123.61,123.61,123.55,123.56, 2481
02/05/2020,20:04,123.55,123.55,123.54,123.54, 1000
02/05/2020,20:05,123.55,123.64,123.55,123.64, 1608
02/05/2020,20:06,123.64,123.66,123.59,123.66, 2400
02/05/2020,20:07,123.63,123.72,123.63,123.69, 2150
02/05/2020,20:08,123.69,123.73,123.66,123.67, 4351
02/05/2020,20:09,123.67,123.68,123.65,123.65, 2471
02/05/2020,20:10,123.66,123.67,123.64,123.65, 4013
02/05/2020,20:11,123.65,123.66,123.63,123.65, 1100
02/05/2020,20:12,123.65,123.66,123.64,123.65, 1500
02/05/2020,20:13,123.65,123.67,123.65,123.66, 5641
02/05/2020,20:14,123.66,123.69,123.64,123.66, 3162
02/05/2020,20:15,123.66,123.66,123.64,123.66, 2100
02/05/2020,20:16,123.66,123.67,123.64,123.67, 1700
02/05/2020,20:17,123.67,123.74,123.67,123.74, 1400
02/05/2020,20:18,123.73,123.84,123.73,123.84, 2512
02/05/2020,20:19,123.85,123.9,123.84,123.9, 2400
02/05/2020,20:20,123.9,123.95,123.88,123.89, 2752
02/05/2020,20:21,123.89,123.94,123.88,123.93, 1600
02/05/2020,20:22,123.93,123.97,123.93,123.96, 2150
02/05/2020,20:23,123.99,123.99,123.94,123.94, 9000
02/05/2020,20:24,123.96,123.96,123.83,123.85, 6543
02/05/2020,20:25,123.86,123.98,123.86,123.98, 7300
02/05/2020,20:26,123.98,124.05,123.98,124.04, 4404
02/05/2020,20:27,124.03,124.03,123.97,123.98, 2195
02/05/2020,20:28,123.99,124.04,123.99,124.03, 1500
02/05/2020,20:29,124.03,124.04,124.02,124.03, 1500
02/05/2020,20:30,124.04,124.07,124.04,124.04, 21500
02/05/2020,20:31,124.03,124.09,124.03,124.08, 8400
02/05/2020,20:32,124.08,124.16,124.08,124.16, 1800
02/05/2020,20:33,124.17,124.22,124.17,124.22, 603
02/05/2020,20:34,124.22,124.22,124.07,124.08, 10282
02/05/2020,20:35,124.07,124.1,124.06,124.08, 3446
02/05/2020,20:36,124.08,124.08,124.06,124.07, 1300
02/05/2020,20:37,124.1,124.11,124.08,124.09, 3000
02/05/2020,20:38,124.08,124.08,124.06,124.08, 2210
02/05/2020,20:39,124.08,124.08,124.07,124.07, 800
02/05/2020,20:40,124.07,124.11,124.07,124.1, 3796
02/05/2020,20:41,124.09,124.13,124.08,124.1, 41761
02/05/2020,20:42,124.09,124.16,124.09,124.16, 4998
02/05/2020,20:43,124.16,124.16,124.09,124.13, 32109
02/05/2020,20:44,124.15,124.28,124.15,124.28, 3115
02/05/2020,20:45,124.26,124.28,124.09,124.1, 18124
02/05/2020,20:46,124.1,124.1,124.08,124.09, 4463
02/05/2020,20:47,124.08,124.1,124.07,124.09, 2274
02/05/2020,20:48,124.1,124.11,124.09,124.09, 16155
02/05/2020,20:49,124.09,124.2,124.09,124.2, 15590
02/05/2020,20:50,124.2,124.26,124.2,124.24, 1700
02/05/2020,20:51,124.25,124.36,124.25,124.36, 2400
02/05/2020,20:52,124.36,124.37,124.23,124.24, 8239
02/05/2020,20:53,124.25,124.25,124.23,124.24, 2700
02/05/2020,20:54,124.24,124.25,124.24,124.25, 5192
02/05/2020,20:55,124.24,124.27,124.24,124.25, 10954
02/05/2020,20:56,124.25,124.29,124.25,124.29, 6186
02/05/2020,20:57,124.31,124.43,124.3,124.42, 13700
02/05/2020,20:58,124.44,124.49,124.34,124.35, 27320
02/05/2020,20:59,124.35,124.37,124.32,124.34, 5778
02/05/2020,21:00,124.34,124.38,124.33,124.34, 3490
02/05/2020,21:01,124.33,124.37,124.31,124.35, 10969
02/05/2020,21:02,124.34,124.44,124.34,124.35, 12689
02/05/2020,21:03,124.34,124.37,124.34,124.34, 7256
02/05/2020,21:04,124.34,124.35,124.33,124.34, 4977
02/05/2020,21:05,124.34,124.48,124.33,124.48, 3935
02/05/2020,21:06,124.48,124.55,124.48,124.55, 1760
02/05/2020,21:07,124.57,124.61,124.56,124.57, 1800
02/05/2020,21:08,124.57,124.57,124.52,124.55, 3418
02/05/2020,21:09,124.56,124.61,124.56,124.61, 2648
02/05/2020,21:10,124.61,124.65,124.61,124.65, 1837
02/05/2020,21:11,124.66,124.68,124.62,124.64, 9389
02/05/2020,21:12,124.66,124.7,124.66,124.7, 2700
02/05/2020,21:13,124.68,124.68,124.6,124.6, 4168
02/05/2020,21:14,124.6,124.6,124.57,124.59, 1100
02/05/2020,21:15,124.58,124.59,124.55,124.55, 3484
02/05/2020,21:16,124.55,124.6,124.55,124.59, 2946
02/05/2020,21:17,124.6,124.73,124.6,124.73, 3900
02/05/2020,21:18,124.76,124.76,124.73,124.74, 1599
02/05/2020,21:19,124.74,124.79,124.74,124.77, 1835
02/05/2020,21:20,124.77,124.85,124.76,124.85, 2819
02/05/2020,21:21,124.84,124.87,124.84,124.87, 878
02/05/2020,21:22,124.89,124.93,124.87,124.91, 3718
02/05/2020,21:23,124.92,124.96,124.91,124.93, 3727
02/05/2020,21:24,124.94,124.97,124.92,124.97, 1333
02/05/2020,21:25,124.98,124.99,124.97,124.98, 2560
02/05/2020,21:26,124.98,125.05,124.98,125.03, 2100
02/05/2020,21:27,125.05,125.05,124.91,124.91, 3661
02/05/2020,21:28,124.92,124.94,124.9,124.94, 1400
02/05/2020,21:29,124.95,125.02,124.93,124.97, 2890
02/05/2020,21:30,124.99,125,124.96,124.98, 2700
02/05/2020,21:31,124.99,125.01,124.96,124.97, 3405
02/05/2020,21:32,124.98,124.99,124.88,124.88, 3755
02/05/2020,21:33,124.89,124.9,124.8,124.84, 3130
02/05/2020,21:34,124.85,124.87,124.79,124.83, 3300
02/05/2020,21:35,124.81,124.85,124.81,124.83, 3292
02/05/2020,21:36,124.83,124.87,124.83,124.86, 2900
02/05/2020,21:37,124.87,124.9,124.84,124.9, 7559
02/05/2020,21:38,124.91,124.91,124.81,124.82, 3937
02/05/2020,21:39,124.81,124.82,124.78,124.81, 4302
02/05/2020,21:40,124.81,124.82,124.73,124.8, 3710
02/05/2020,21:41,124.78,124.78,124.74,124.76, 3135
02/05/2020,21:42,124.77,124.78,124.72,124.77, 3147
02/05/2020,21:43,124.78,124.94,124.75,124.94, 9673
02/05/2020,21:44,124.95,124.99,124.91,124.92, 4007
02/05/2020,21:45,124.93,125.06,124.93,125.04, 5821
02/05/2020,21:46,125.05,125.07,124.95,124.95, 11401
02/05/2020,21:47,124.95,125.04,124.94,125.04, 9534
02/05/2020,21:48,125.06,125.1,125.05,125.05, 9406
02/05/2020,21:49,125.05,125.08,124.99,124.99, 7474
02/05/2020,21:50,124.97,125.02,124.92,124.94, 6842
02/05/2020,21:51,124.94,124.96,124.78,124.79, 8595
02/05/2020,21:52,124.8,124.83,124.74,124.81, 8629
02/05/2020,21:53,124.8,124.8,124.74,124.78, 7552
02/05/2020,21:54,124.79,124.8,124.72,124.75, 8579
02/05/2020,21:55,124.74,124.76,124.64,124.67, 13045
02/05/2020,21:56,124.64,124.77,124.64,124.76, 17127
02/05/2020,21:57,124.74,124.9,124.73,124.86, 19668
02/05/2020,21:58,124.86,124.92,124.83,124.88, 18244
02/05/2020,21:59,124.87,124.88,124.8,124.8, 24554
02/05/2020,22:00,124.8,124.98,124.79,124.93, 43655
02/05/2020,22:01,124.95,124.95,124.83,124.86, 45839
02/05/2020,22:05,124.86,124.86,124.86,124.86, 618931
02/06/2020,15:31,125.3,125.44,125.08,125.44, 10936
02/06/2020,15:33,125.16,125.16,124.91,125.08, 700
02/06/2020,15:34,125.09,125.39,125.09,125.25, 2700
02/06/2020,15:34,125.27,125.27,125.22,125.22, 600
02/06/2020,15:36,124.99,125.11,124.89,125.11, 2300
02/06/2020,15:37,125.12,125.26,125.12,125.16, 1300
02/06/2020,15:38,125.28,125.28,124.96,124.96, 800
02/06/2020,15:39,125.04,125.04,124.87,124.89, 1754
02/06/2020,15:40,124.91,124.92,124.89,124.92, 800
02/06/2020,15:41,124.92,124.99,124.81,124.87, 4600
02/06/2020,15:42,124.79,124.85,124.74,124.85, 502
02/06/2020,15:43,124.7,124.87,124.7,124.87, 2100
02/06/2020,15:44,124.87,124.87,124.71,124.71, 300
02/06/2020,15:45,124.69,124.69,124.62,124.68, 700
02/06/2020,15:46,124.56,124.6,124.44,124.51, 2300
02/06/2020,15:47,124.44,124.49,124.39,124.41, 2209
02/06/2020,15:48,124.39,124.44,124.35,124.44, 2350
02/06/2020,15:49,124.46,124.46,124.37,124.42, 2286
02/06/2020,15:50,124.36,124.43,124.23,124.23, 4987
02/06/2020,15:51,124.28,124.29,124.18,124.24, 3171
02/06/2020,15:52,124.09,124.24,124.07,124.23, 2082
02/06/2020,15:53,124.27,124.31,124.2,124.29, 1502
02/06/2020,15:54,124.28,124.28,124.07,124.07, 2000
02/06/2020,15:55,124.13,124.26,124.08,124.22, 14138
02/06/2020,15:56,124.21,124.31,124.21,124.26, 1467
02/06/2020,15:57,124.29,124.31,124.29,124.31, 956
02/06/2020,15:58,124.35,124.52,124.35,124.49, 719
02/06/2020,15:59,124.58,124.63,124.5,124.61, 2000
02/06/2020,16:00,124.61,124.83,124.61,124.83, 3171
02/06/2020,16:01,124.86,124.92,124.74,124.77, 2672
02/06/2020,16:02,124.73,124.73,124.64,124.68, 1066
02/06/2020,16:03,124.65,124.67,124.58,124.63, 1011
02/06/2020,16:04,124.59,124.59,124.48,124.56, 4879
02/06/2020,16:05,124.56,124.62,124.56,124.58, 1620
02/06/2020,16:06,124.58,124.58,124.54,124.55, 822
02/06/2020,16:07,124.52,124.52,124.46,124.51, 2634
02/06/2020,16:08,124.47,124.5,124.42,124.46, 3300
02/06/2020,16:09,124.45,124.5,124.43,124.47, 1014
02/06/2020,16:10,124.55,124.6,124.55,124.6, 500
02/06/2020,16:11,124.56,124.66,124.55,124.61, 1800
02/06/2020,16:12,124.68,124.68,124.61,124.63, 1200
02/06/2020,16:13,124.64,124.7,124.64,124.7, 300
02/06/2020,16:14,124.75,124.75,124.68,124.68, 574
02/06/2020,16:15,124.62,124.62,124.57,124.57, 200
02/06/2020,16:16,124.51,124.51,124.46,124.46, 500
02/06/2020,16:16,124.47,124.47,124.47,124.47, 100
02/06/2020,16:18,124.41,124.45,124.39,124.39, 400
02/06/2020,16:19,124.39,124.46,124.39,124.46, 454
02/06/2020,16:20,124.43,124.43,124.43,124.43, 100
02/06/2020,16:21,124.44,124.44,124.27,124.27, 702
02/06/2020,16:22,124.31,124.31,124.3,124.3, 314
02/06/2020,16:23,124.3,124.35,124.3,124.35, 500
02/06/2020,16:24,124.27,124.29,124.24,124.24, 700
02/06/2020,16:25,124.2,124.25,124.2,124.25, 200
02/06/2020,16:26,124.3,124.3,124.3,124.3, 393
02/06/2020,16:27,124.37,124.37,124.36,124.36, 200
02/06/2020,16:28,124.31,124.33,124.25,124.29, 1000
02/06/2020,16:29,124.35,124.35,124.3,124.34, 400
02/06/2020,16:30,124.33,124.41,124.33,124.37, 600
02/06/2020,16:31,124.37,124.38,124.27,124.32, 1728
02/06/2020,16:32,124.32,124.38,124.32,124.38, 1417
02/06/2020,16:33,124.36,124.39,124.3,124.3, 4517
02/06/2020,16:34,124.29,124.32,124.25,124.29, 1077
02/06/2020,16:35,124.26,124.28,124.25,124.28, 1400
02/06/2020,16:35,124.28,124.28,124.28,124.28, 100
02/06/2020,16:37,124.3,124.33,124.3,124.33, 350
02/06/2020,16:38,124.34,124.34,124.32,124.32, 620
02/06/2020,16:40,124.34,124.4,124.34,124.4, 200
02/06/2020,16:41,124.31,124.37,124.31,124.35, 800
02/06/2020,16:42,124.34,124.34,124.3,124.34, 1100
02/06/2020,16:42,124.33,124.33,124.33,124.33, 100
02/06/2020,16:44,124.35,124.4,124.35,124.4, 3208
02/06/2020,16:45,124.35,124.38,124.3,124.35, 10838
02/06/2020,16:46,124.33,124.33,124.3,124.32, 600
02/06/2020,16:47,124.35,124.45,124.34,124.45, 1500
02/06/2020,16:48,124.45,124.51,124.44,124.51, 3451
02/06/2020,16:49,124.56,124.62,124.55,124.6, 2786
02/06/2020,16:50,124.59,124.68,124.59,124.68, 601
02/06/2020,16:51,124.67,124.67,124.67,124.67, 100
02/06/2020,16:52,124.68,124.68,124.68,124.68, 100
02/06/2020,16:53,124.7,124.7,124.61,124.64, 1647
02/06/2020,16:53,124.62,124.65,124.62,124.65, 400
02/06/2020,16:55,124.62,124.62,124.51,124.51, 2204
02/06/2020,16:56,124.46,124.49,124.45,124.49, 3221
02/06/2020,16:57,124.45,124.48,124.45,124.48, 600
02/06/2020,16:58,124.52,124.57,124.52,124.56, 521
02/06/2020,16:59,124.6,124.64,124.59,124.64, 1300
02/06/2020,16:59,124.63,124.68,124.63,124.68, 1100
02/06/2020,17:01,124.73,124.73,124.64,124.64, 806
02/06/2020,17:02,124.61,124.63,124.53,124.54, 1701
02/06/2020,17:03,124.54,124.66,124.54,124.66, 1000
02/06/2020,17:03,124.65,124.65,124.65,124.65, 518
02/06/2020,17:05,124.65,124.67,124.64,124.64, 420
02/06/2020,17:06,124.59,124.6,124.58,124.58, 700
02/06/2020,17:07,124.59,124.61,124.58,124.61, 900
02/06/2020,17:08,124.59,124.59,124.52,124.53, 540
02/06/2020,17:09,124.52,124.53,124.51,124.52, 700
02/06/2020,17:10,124.53,124.53,124.53,124.53, 100
02/06/2020,17:10,124.54,124.6,124.54,124.6, 300
02/06/2020,17:12,124.63,124.69,124.63,124.67, 1010
02/06/2020,17:13,124.68,124.68,124.64,124.66, 1300
02/06/2020,17:14,124.67,124.68,124.63,124.63, 2273
02/06/2020,17:15,124.64,124.66,124.59,124.59, 741
02/06/2020,17:16,124.56,124.57,124.55,124.55, 1800
02/06/2020,17:17,124.57,124.61,124.57,124.58, 573
02/06/2020,17:18,124.59,124.59,124.55,124.55, 1800
02/06/2020,17:19,124.52,124.55,124.51,124.52, 1300
02/06/2020,17:20,124.52,124.56,124.52,124.56, 1975
02/06/2020,17:21,124.57,124.57,124.48,124.48, 1303
02/06/2020,17:22,124.46,124.48,124.46,124.47, 7461
02/06/2020,17:23,124.47,124.47,124.33,124.33, 1559
02/06/2020,17:24,124.33,124.39,124.33,124.39, 1683
02/06/2020,17:25,124.39,124.39,124.37,124.37, 300
02/06/2020,17:26,124.41,124.41,124.4,124.41, 372
02/06/2020,17:27,124.41,124.41,124.41,124.41, 200
02/06/2020,17:28,124.42,124.42,124.42,124.42, 200
02/06/2020,17:30,124.53,124.53,124.5,124.5, 625
02/06/2020,17:31,124.53,124.53,124.49,124.5, 2128
02/06/2020,17:32,124.4,124.43,124.4,124.43, 200
02/06/2020,17:33,124.44,124.44,124.41,124.43, 500
02/06/2020,17:34,124.43,124.49,124.4,124.48, 1400
02/06/2020,17:35,124.46,124.46,124.41,124.41, 800
02/06/2020,17:36,124.43,124.43,124.42,124.42, 440
02/06/2020,17:37,124.49,124.49,124.49,124.49, 728
02/06/2020,17:38,124.53,124.54,124.53,124.54, 300
02/06/2020,17:38,124.56,124.56,124.56,124.56, 100
02/06/2020,17:40,124.62,124.62,124.6,124.6, 1000
02/06/2020,17:41,124.61,124.61,124.51,124.52, 4518
02/06/2020,17:42,124.54,124.57,124.51,124.57, 2705
02/06/2020,17:43,124.58,124.6,124.57,124.57, 1168
02/06/2020,17:44,124.6,124.6,124.59,124.59, 305
02/06/2020,17:45,124.59,124.59,124.58,124.58, 300
02/06/2020,17:46,124.59,124.6,124.55,124.55, 1442
02/06/2020,17:47,124.52,124.54,124.52,124.52, 796
02/06/2020,17:47,124.49,124.49,124.49,124.49, 183
02/06/2020,17:49,124.51,124.51,124.45,124.49, 1852
02/06/2020,17:50,124.5,124.53,124.49,124.53, 800
02/06/2020,17:51,124.6,124.6,124.6,124.6, 100
02/06/2020,17:52,124.57,124.59,124.57,124.59, 600
02/06/2020,17:53,124.58,124.58,124.51,124.51, 1233
02/06/2020,17:54,124.41,124.41,124.41,124.41, 100
02/06/2020,17:55,124.41,124.44,124.41,124.44, 700
02/06/2020,17:56,124.46,124.47,124.45,124.47, 400
02/06/2020,17:56,124.46,124.46,124.46,124.46, 100
02/06/2020,17:58,124.44,124.44,124.38,124.39, 995
02/06/2020,17:59,124.41,124.41,124.39,124.41, 1250
02/06/2020,18:00,124.46,124.46,124.46,124.46, 105
02/06/2020,18:01,124.45,124.46,124.4,124.41, 900
02/06/2020,18:02,124.4,124.42,124.39,124.41, 1400
02/06/2020,18:03,124.38,124.38,124.32,124.35, 1892
02/06/2020,18:04,124.35,124.35,124.32,124.32, 1413
02/06/2020,18:05,124.34,124.34,124.34,124.34, 867
02/06/2020,18:07,124.37,124.38,124.37,124.38, 300
02/06/2020,18:08,124.39,124.42,124.39,124.42, 400
02/06/2020,18:09,124.44,124.47,124.41,124.41, 1718
02/06/2020,18:11,124.4,124.4,124.39,124.39, 945
02/06/2020,18:11,124.36,124.36,124.36,124.36, 200
02/06/2020,18:13,124.35,124.35,124.33,124.34, 400
02/06/2020,18:13,124.32,124.32,124.32,124.32, 100
02/06/2020,18:15,124.33,124.34,124.33,124.33, 871
02/06/2020,18:16,124.33,124.34,124.3,124.3, 1278
02/06/2020,18:17,124.29,124.32,124.29,124.31, 1084
02/06/2020,18:17,124.34,124.34,124.34,124.34, 100
02/06/2020,18:18,124.38,124.38,124.38,124.38, 200
02/06/2020,18:19,124.38,124.4,124.38,124.4, 799
02/06/2020,18:20,124.41,124.41,124.41,124.41, 200
02/06/2020,18:22,124.43,124.43,124.4,124.4, 800
02/06/2020,18:23,124.42,124.42,124.42,124.42, 100
02/06/2020,18:23,124.4,124.4,124.36,124.39, 1713
02/06/2020,18:25,124.39,124.39,124.37,124.38, 800
02/06/2020,18:26,124.38,124.38,124.38,124.38, 685
02/06/2020,18:28,124.37,124.4,124.37,124.4, 1300
02/06/2020,18:29,124.4,124.4,124.4,124.4, 100
02/06/2020,18:30,124.4,124.45,124.4,124.45, 1185
02/06/2020,18:31,124.44,124.45,124.42,124.42, 2060
02/06/2020,18:32,124.39,124.43,124.37,124.41, 7462
02/06/2020,18:33,124.41,124.42,124.4,124.42, 843
02/06/2020,18:34,124.41,124.43,124.41,124.43, 400
02/06/2020,18:35,124.41,124.41,124.39,124.4, 909
02/06/2020,18:36,124.39,124.4,124.39,124.39, 800
02/06/2020,18:37,124.39,124.39,124.33,124.34, 2901
02/06/2020,18:38,124.32,124.35,124.32,124.35, 1900
02/06/2020,18:38,124.35,124.35,124.34,124.34, 520
02/06/2020,18:40,124.32,124.34,124.3,124.33, 2131
02/06/2020,18:41,124.32,124.34,124.32,124.34, 2211
02/06/2020,18:42,124.35,124.37,124.35,124.37, 483
02/06/2020,18:44,124.37,124.37,124.36,124.37, 1490
02/06/2020,18:45,124.36,124.36,124.33,124.33, 619
02/06/2020,18:45,124.32,124.32,124.32,124.32, 100
02/06/2020,18:47,124.3,124.3,124.21,124.21, 2801
02/06/2020,18:48,124.19,124.2,124.16,124.18, 2375
02/06/2020,18:49,124.19,124.2,124.19,124.2, 1200
02/06/2020,18:49,124.21,124.23,124.21,124.23, 400
02/06/2020,18:51,124.24,124.24,124.22,124.22, 705
02/06/2020,18:52,124.24,124.26,124.24,124.26, 400
02/06/2020,18:53,124.32,124.32,124.3,124.3, 300
02/06/2020,18:54,124.29,124.3,124.29,124.3, 926
02/06/2020,18:55,124.33,124.33,124.3,124.31, 817
02/06/2020,18:55,124.32,124.32,124.32,124.32, 500
02/06/2020,18:56,124.32,124.33,124.31,124.33, 1001
02/06/2020,18:59,124.33,124.33,124.3,124.3, 1500
02/06/2020,19:00,124.32,124.39,124.32,124.39, 929
02/06/2020,19:00,124.39,124.39,124.39,124.39, 100
02/06/2020,19:02,124.41,124.41,124.4,124.4, 200
02/06/2020,19:04,124.41,124.42,124.41,124.42, 300
02/06/2020,19:04,124.42,124.42,124.4,124.42, 400
02/06/2020,19:06,124.41,124.41,124.4,124.4, 200
02/06/2020,19:07,124.39,124.42,124.39,124.42, 900
02/06/2020,19:08,124.42,124.43,124.42,124.42, 500
02/06/2020,19:09,124.39,124.4,124.39,124.4, 903
02/06/2020,19:10,124.41,124.41,124.41,124.41, 100
02/06/2020,19:13,124.42,124.43,124.41,124.43, 1409
02/06/2020,19:15,124.44,124.46,124.44,124.46, 1193
02/06/2020,19:16,124.47,124.48,124.47,124.48, 544
02/06/2020,19:17,124.48,124.51,124.48,124.5, 1300
02/06/2020,19:18,124.49,124.49,124.48,124.48, 703
02/06/2020,19:19,124.46,124.48,124.46,124.48, 698
02/06/2020,19:20,124.48,124.48,124.45,124.45, 1043
02/06/2020,19:21,124.45,124.46,124.45,124.46, 300
02/06/2020,19:22,124.44,124.45,124.42,124.42, 1000
02/06/2020,19:23,124.4,124.4,124.4,124.4, 400
02/06/2020,19:24,124.38,124.41,124.38,124.41, 606
02/06/2020,19:25,124.41,124.43,124.41,124.41, 956
02/06/2020,19:26,124.41,124.42,124.41,124.42, 700
02/06/2020,19:27,124.41,124.41,124.41,124.41, 100
02/06/2020,19:29,124.44,124.44,124.29,124.29, 2492
02/06/2020,19:29,124.31,124.31,124.31,124.31, 100
02/06/2020,19:31,124.27,124.27,124.21,124.21, 402
02/06/2020,19:32,124.23,124.23,124.22,124.22, 500
02/06/2020,19:33,124.21,124.23,124.21,124.22, 401
02/06/2020,19:34,124.21,124.21,124.21,124.21, 700
02/06/2020,19:35,124.18,124.19,124.15,124.18, 1424
02/06/2020,19:36,124.2,124.2,124.15,124.15, 500
02/06/2020,19:37,124.16,124.16,124.12,124.12, 408
02/06/2020,19:38,124.12,124.15,124.12,124.14, 800
02/06/2020,19:39,124.14,124.14,124.14,124.14, 200
02/06/2020,19:40,124.13,124.13,124.09,124.09, 1387
02/06/2020,19:41,124.1,124.1,124.09,124.09, 400
02/06/2020,19:42,124.1,124.11,124.07,124.08, 1415
02/06/2020,19:43,124.08,124.1,124.04,124.1, 1601
02/06/2020,19:43,124.1,124.12,124.1,124.1, 1296
02/06/2020,19:45,124.12,124.12,124.1,124.1, 261
02/06/2020,19:45,124.11,124.12,124.11,124.12, 300
02/06/2020,19:46,124.13,124.14,124.11,124.11, 566
02/06/2020,19:48,124.12,124.12,124.07,124.11, 2051
02/06/2020,19:49,124.11,124.11,124.1,124.11, 800
02/06/2020,19:50,124.11,124.11,124.07,124.09, 1786
02/06/2020,19:51,124.08,124.08,124.04,124.06, 976
02/06/2020,19:52,124.07,124.08,124.05,124.06, 800
02/06/2020,19:53,124.08,124.08,124.07,124.07, 200
02/06/2020,19:54,124.09,124.09,124.09,124.09, 330
02/06/2020,19:55,124.11,124.11,124.07,124.07, 1283
02/06/2020,19:56,124.07,124.08,124.07,124.07, 894
02/06/2020,19:56,124.08,124.09,124.08,124.08, 554
02/06/2020,19:57,124.09,124.09,124.09,124.09, 100
02/06/2020,20:00,124.11,124.14,124.11,124.12, 700
02/06/2020,20:01,124.14,124.15,124.11,124.11, 3510
02/06/2020,20:02,124.11,124.11,124.03,124.06, 1662
02/06/2020,20:03,124.05,124.05,124,124.01, 2300
02/06/2020,20:04,124.01,124.01,123.97,124, 717
02/06/2020,20:05,124.01,124.02,123.99,124, 2584
02/06/2020,20:06,124.02,124.02,123.98,124, 1088
02/06/2020,20:07,124.01,124.04,123.99,124.01, 1200
02/06/2020,20:08,124,124.01,123.99,123.99, 27048
02/06/2020,20:09,124.01,124.08,124.01,124.07, 3772
02/06/2020,20:10,124.09,124.09,124.01,124.05, 5085
02/06/2020,20:11,124.06,124.09,124.06,124.09, 300
02/06/2020,20:12,124.1,124.12,124.1,124.12, 500
02/06/2020,20:13,124.14,124.14,124.13,124.13, 334
02/06/2020,20:15,124.15,124.17,124.14,124.17, 800
02/06/2020,20:16,124.17,124.17,124.14,124.14, 905
02/06/2020,20:16,124.14,124.17,124.14,124.17, 500
02/06/2020,20:18,124.16,124.16,124.14,124.15, 703
02/06/2020,20:19,124.15,124.16,124.13,124.14, 1103
02/06/2020,20:20,124.16,124.19,124.16,124.19, 343
02/06/2020,20:21,124.2,124.2,124.14,124.18, 1593
02/06/2020,20:22,124.15,124.16,124.08,124.08, 2559
02/06/2020,20:23,124.09,124.1,124.08,124.08, 500
02/06/2020,20:23,124.08,124.08,124.03,124.07, 901
02/06/2020,20:24,124.06,124.07,124.06,124.07, 601
02/06/2020,20:26,124.08,124.09,124.06,124.08, 1703
02/06/2020,20:27,124.08,124.08,124.08,124.08, 100
02/06/2020,20:28,124.08,124.08,124.03,124.03, 2829
02/06/2020,20:28,124.03,124.03,124.03,124.03, 100
02/06/2020,20:30,124.03,124.07,124.03,124.06, 1454
02/06/2020,20:31,124.06,124.06,124.02,124.06, 1203
02/06/2020,20:33,124.09,124.09,124.09,124.09, 503
02/06/2020,20:35,124.09,124.1,124.09,124.09, 300
02/06/2020,20:35,124.09,124.09,124.07,124.08, 300
02/06/2020,20:37,124.06,124.07,124,124, 1111
02/06/2020,20:38,124,124.02,124,124.01, 1222
02/06/2020,20:39,124.03,124.03,123.97,123.98, 991
02/06/2020,20:40,123.99,124,123.97,123.97, 650
02/06/2020,20:41,123.97,123.97,123.93,123.93, 1076
02/06/2020,20:42,123.92,123.97,123.92,123.97, 900
02/06/2020,20:42,123.95,123.95,123.92,123.92, 700
02/06/2020,20:44,123.92,123.95,123.92,123.95, 900
02/06/2020,20:45,123.93,123.93,123.92,123.92, 300
02/06/2020,20:46,123.92,123.94,123.9,123.9, 2196
02/06/2020,20:46,123.91,123.92,123.89,123.92, 1328
02/06/2020,20:48,123.89,123.93,123.88,123.93, 700
02/06/2020,20:48,123.92,123.96,123.92,123.95, 2400
02/06/2020,20:50,124,124.05,123.99,124.04, 2401
02/06/2020,20:50,124.03,124.09,124.03,124.09, 800
02/06/2020,20:52,124.09,124.09,124.08,124.08, 744
02/06/2020,20:53,124.05,124.07,124.04,124.04, 3317
02/06/2020,20:54,124.06,124.07,124.05,124.06, 600
02/06/2020,20:55,124.07,124.12,124.07,124.12, 1302
02/06/2020,20:56,124.1,124.1,124.07,124.07, 2301
02/06/2020,20:57,124.08,124.1,124.06,124.1, 900
02/06/2020,20:58,124.09,124.12,124.09,124.1, 400
02/06/2020,20:59,124.12,124.12,124.07,124.08, 2969
02/06/2020,21:00,124.07,124.08,124.06,124.06, 900
02/06/2020,21:01,124.07,124.08,124.05,124.06, 1600
02/06/2020,21:02,124.07,124.07,124.05,124.06, 800
02/06/2020,21:03,124.07,124.07,124.02,124.02, 2316
02/06/2020,21:04,124.04,124.09,124.04,124.07, 914
02/06/2020,21:05,124.07,124.07,124.06,124.07, 783
02/06/2020,21:06,124.05,124.07,124.05,124.07, 400
02/06/2020,21:07,124.06,124.06,124.04,124.06, 900
02/06/2020,21:08,124.07,124.1,124.07,124.08, 1156
02/06/2020,21:09,124.09,124.09,124.05,124.08, 807
02/06/2020,21:10,124.07,124.08,124.05,124.08, 900
02/06/2020,21:11,124.08,124.09,124.06,124.07, 1800
02/06/2020,21:12,124.06,124.07,124.05,124.05, 1534
02/06/2020,21:13,124.06,124.08,124.05,124.06, 1714
02/06/2020,21:14,124.07,124.07,124.07,124.07, 300
02/06/2020,21:15,124.06,124.07,124.04,124.07, 1909
02/06/2020,21:16,124.07,124.09,124.07,124.07, 823
02/06/2020,21:17,124.06,124.09,124.06,124.09, 2732
02/06/2020,21:18,124.08,124.11,124.08,124.11, 800
02/06/2020,21:18,124.09,124.1,124.09,124.09, 300
02/06/2020,21:20,124.11,124.11,124.08,124.09, 2209
02/06/2020,21:21,124.1,124.13,124.09,124.11, 1202
02/06/2020,21:22,124.1,124.14,124.1,124.12, 2000
02/06/2020,21:23,124.11,124.11,124.06,124.09, 3307
02/06/2020,21:24,124.1,124.11,124.09,124.11, 600
02/06/2020,21:25,124.12,124.12,124.1,124.1, 200
02/06/2020,21:26,124.09,124.09,124.07,124.09, 1494
02/06/2020,21:27,124.07,124.08,124.04,124.08, 1946
02/06/2020,21:27,124.08,124.08,124.06,124.07, 999
02/06/2020,21:29,124.06,124.07,124.04,124.04, 2599
02/06/2020,21:30,124.02,124.02,123.97,123.98, 981
02/06/2020,21:31,123.98,124.1,123.98,124.1, 4352
02/06/2020,21:32,124.1,124.1,124.07,124.1, 1703
02/06/2020,21:33,124.1,124.14,124.09,124.14, 400
02/06/2020,21:34,124.13,124.14,124.13,124.14, 500
02/06/2020,21:35,124.17,124.22,124.17,124.22, 1900
02/06/2020,21:36,124.22,124.29,124.22,124.29, 3211
02/06/2020,21:37,124.3,124.36,124.3,124.36, 1400
02/06/2020,21:38,124.36,124.38,124.36,124.37, 1700
02/06/2020,21:39,124.36,124.36,124.33,124.36, 4980
02/06/2020,21:40,124.35,124.36,124.34,124.36, 3398
02/06/2020,21:41,124.36,124.36,124.35,124.36, 700
02/06/2020,21:42,124.37,124.38,123.61,124.2, 59569
02/06/2020,21:43,124.21,124.21,124.18,124.2, 7684
02/06/2020,21:44,124.22,124.24,124.2,124.2, 4573
02/06/2020,21:45,124.2,124.21,124.18,124.18, 6096
02/06/2020,21:46,124.2,124.2,124.15,124.17, 6409
02/06/2020,21:47,124.17,124.19,124.15,124.15, 5708
02/06/2020,21:48,124.15,124.19,124.14,124.19, 5273
02/06/2020,21:49,124.18,124.23,124.18,124.23, 900
02/06/2020,21:50,124.23,124.29,124.23,124.27, 4292
02/06/2020,21:51,124.28,124.32,124.26,124.32, 7109
02/06/2020,21:52,124.32,124.33,124.31,124.31, 3700
02/06/2020,21:53,124.31,124.33,124.29,124.33, 6999
02/06/2020,21:54,124.34,124.36,124.34,124.35, 7065
02/06/2020,21:55,124.36,124.36,124.31,124.33, 5064
02/06/2020,21:56,124.33,124.34,124.31,124.32, 6830
02/06/2020,21:57,124.31,124.35,124.31,124.33, 8471
02/06/2020,21:58,124.32,124.33,124.29,124.29, 7838
02/06/2020,21:59,124.3,124.33,124.3,124.32, 11342
02/06/2020,22:00,124.32,124.38,124.29,124.35, 54192
02/06/2020,22:01,124.36,124.39,124.32,124.33, 35894
02/06/2020,22:06,124.36,124.36,124.36,124.36, 278543
02/07/2020,15:31,123.52,123.83,123.52,123.79, 422
02/07/2020,15:33,123.66,123.86,123.66,123.86, 200
02/07/2020,15:34,123.75,123.75,123.42,123.61, 1840
02/07/2020,15:35,123.5,123.69,123.5,123.67, 3067
02/07/2020,15:36,123.75,123.75,123.25,123.48, 1099
02/07/2020,15:37,123.71,123.71,123.45,123.55, 400
02/07/2020,15:38,123.61,123.7,123.4,123.7, 829
02/07/2020,15:38,123.74,123.75,123.68,123.68, 500
02/07/2020,15:40,123.7,123.75,123.52,123.52, 6999
02/07/2020,15:41,123.59,123.6,123.46,123.55, 7946
02/07/2020,15:41,123.58,123.63,123.48,123.63, 3300
02/07/2020,15:43,123.66,123.66,123.56,123.58, 2289
02/07/2020,15:43,123.55,123.56,123.46,123.56, 600
02/07/2020,15:44,123.61,123.61,123.61,123.61, 100
02/07/2020,15:46,123.61,123.66,123.56,123.66, 3372
02/07/2020,15:47,123.62,123.62,123.5,123.51, 1349
02/07/2020,15:47,123.62,123.62,123.47,123.55, 600
02/07/2020,15:48,123.6,123.63,123.49,123.49, 783
02/07/2020,15:50,123.58,123.74,123.55,123.74, 400
02/07/2020,15:51,123.75,123.75,123.66,123.67, 1700
02/07/2020,15:52,123.73,123.79,123.73,123.79, 200
02/07/2020,15:53,123.72,123.72,123.59,123.7, 1900
02/07/2020,15:54,123.69,123.75,123.62,123.75, 3100
02/07/2020,15:55,123.78,123.81,123.73,123.73, 1500
02/07/2020,15:56,123.73,123.73,123.65,123.65, 900
02/07/2020,15:57,123.65,123.65,123.56,123.61, 300
02/07/2020,15:58,123.59,123.59,123.55,123.59, 500
02/07/2020,15:59,123.62,123.62,123.52,123.52, 2568
02/07/2020,16:00,123.45,123.63,123.42,123.63, 2408
02/07/2020,16:01,123.6,123.6,123.47,123.49, 3531
02/07/2020,16:02,123.54,123.57,123.43,123.43, 2600
02/07/2020,16:03,123.4,123.49,123.34,123.45, 1202
02/07/2020,16:03,123.4,123.41,123.34,123.34, 420
02/07/2020,16:05,123.4,123.43,123.32,123.32, 900
02/07/2020,16:06,123.35,123.43,123.34,123.34, 2100
02/07/2020,16:07,123.36,123.43,123.36,123.38, 1042
02/07/2020,16:08,123.49,123.58,123.49,123.58, 300
02/07/2020,16:09,123.59,123.59,123.49,123.49, 1288
02/07/2020,16:10,123.49,123.49,123.4,123.4, 300
02/07/2020,16:11,123.32,123.34,123.26,123.34, 1272
02/07/2020,16:12,123.31,123.37,123.3,123.37, 1090
02/07/2020,16:13,123.31,123.31,123.2,123.2, 4071
02/07/2020,16:14,123.16,123.21,123.06,123.08, 2935
02/07/2020,16:15,123.07,123.15,123.07,123.09, 1500
02/07/2020,16:16,123.05,123.05,123.05,123.05, 900
02/07/2020,16:17,123.05,123.05,123,123.03, 1700
02/07/2020,16:18,123.03,123.11,123.03,123.09, 1300
02/07/2020,16:19,123.07,123.11,123.06,123.09, 2834
02/07/2020,16:20,123.11,123.15,123.09,123.12, 2024
02/07/2020,16:20,123.13,123.15,123.12,123.15, 600
02/07/2020,16:22,123.21,123.22,123.19,123.19, 812
02/07/2020,16:24,123.24,123.27,123.21,123.21, 468
02/07/2020,16:25,123.24,123.27,123.24,123.27, 600
02/07/2020,16:26,123.28,123.29,123.27,123.29, 800
02/07/2020,16:27,123.29,123.29,123.24,123.26, 1339
02/07/2020,16:28,123.27,123.3,123.27,123.3, 1300
02/07/2020,16:28,123.37,123.37,123.37,123.37, 100
02/07/2020,16:30,123.37,123.44,123.33,123.44, 3063
02/07/2020,16:31,123.42,123.44,123.37,123.37, 2843
02/07/2020,16:32,123.33,123.33,123.27,123.29, 2046
02/07/2020,16:33,123.29,123.37,123.29,123.36, 4500
02/07/2020,16:34,123.36,123.4,123.33,123.4, 2025
02/07/2020,16:35,123.4,123.4,123.32,123.32, 1900
02/07/2020,16:35,123.24,123.29,123.24,123.24, 300
02/07/2020,16:37,123.25,123.28,123.18,123.18, 1700
02/07/2020,16:38,123.22,123.25,123.21,123.21, 2674
02/07/2020,16:39,123.2,123.23,123.2,123.21, 300
02/07/2020,16:40,123.21,123.26,123.18,123.23, 2901
02/07/2020,16:41,123.24,123.24,123.2,123.2, 1221
02/07/2020,16:42,123.22,123.27,123.22,123.27, 1576
02/07/2020,16:43,123.27,123.27,123.19,123.22, 5862
02/07/2020,16:44,123.21,123.34,123.18,123.33, 2289
02/07/2020,16:45,123.41,123.41,123.23,123.23, 9700
02/07/2020,16:46,123.23,123.27,123.08,123.08, 7157
02/07/2020,16:47,123.1,123.1,123.05,123.06, 6390
02/07/2020,16:48,123.07,123.08,123,123, 5351
02/07/2020,16:49,122.99,122.99,122.95,122.95, 401
02/07/2020,16:50,122.95,122.98,122.92,122.95, 4421
02/07/2020,16:51,122.95,122.96,122.92,122.95, 1390
02/07/2020,16:52,122.94,122.95,122.92,122.94, 1500
02/07/2020,16:53,122.92,122.99,122.92,122.98, 2300
02/07/2020,16:54,122.97,123.03,122.93,122.98, 2743
02/07/2020,16:55,122.98,123.02,122.93,123.02, 4659
02/07/2020,16:56,123.01,123.01,122.96,122.96, 1838
02/07/2020,16:57,122.96,122.96,122.88,122.88, 2400
02/07/2020,16:58,122.91,122.95,122.88,122.91, 2130
02/07/2020,16:59,122.9,122.92,122.84,122.91, 5400
02/07/2020,17:00,122.88,122.94,122.86,122.91, 4300
02/07/2020,17:01,122.9,122.9,122.81,122.81, 2204
02/07/2020,17:02,122.8,122.84,122.78,122.8, 1424
02/07/2020,17:03,122.82,122.82,122.8,122.8, 1100
02/07/2020,17:04,122.78,122.83,122.78,122.82, 1865
02/07/2020,17:04,122.83,122.87,122.83,122.86, 1200
02/07/2020,17:06,122.83,122.84,122.83,122.84, 1323
02/07/2020,17:07,122.86,122.92,122.86,122.88, 2700
02/07/2020,17:08,122.89,122.95,122.89,122.95, 1000
02/07/2020,17:09,122.98,123.02,122.96,122.96, 2938
02/07/2020,17:10,122.96,122.99,122.96,122.97, 1489
02/07/2020,17:11,122.94,122.95,122.9,122.95, 5360
02/07/2020,17:11,122.9,122.9,122.85,122.85, 943
02/07/2020,17:12,122.83,122.83,122.82,122.83, 700
02/07/2020,17:14,122.8,122.8,122.72,122.75, 1400
02/07/2020,17:15,122.75,122.79,122.75,122.78, 1314
02/07/2020,17:16,122.78,122.79,122.78,122.78, 700
02/07/2020,17:17,122.78,122.87,122.78,122.87, 2120
02/07/2020,17:17,122.88,122.88,122.87,122.87, 400
02/07/2020,17:19,122.86,122.87,122.82,122.86, 4200
02/07/2020,17:20,122.88,122.88,122.87,122.87, 400
02/07/2020,17:21,122.87,122.93,122.86,122.93, 1151
02/07/2020,17:22,122.91,122.95,122.91,122.91, 1702
02/07/2020,17:23,122.92,122.95,122.92,122.95, 600
02/07/2020,17:23,122.96,122.98,122.96,122.96, 1500
02/07/2020,17:25,122.95,123.01,122.95,123.01, 600
02/07/2020,17:26,123.04,123.09,123.04,123.04, 800
02/07/2020,17:27,123.06,123.06,123.01,123.01, 1075
02/07/2020,17:28,123.02,123.04,122.99,123.04, 400
02/07/2020,17:29,122.98,123.01,122.98,123, 375
02/07/2020,17:30,122.99,123.02,122.98,123.01, 600
02/07/2020,17:31,122.98,123,122.98,123, 600
02/07/2020,17:32,123,123.01,122.99,123, 1600
02/07/2020,17:33,123.01,123.08,123.01,123.02, 1582
02/07/2020,17:34,123.04,123.04,123.01,123.01, 200
02/07/2020,17:36,123.03,123.03,122.95,122.95, 3922
02/07/2020,17:37,122.93,122.93,122.92,122.92, 812
02/07/2020,17:37,122.89,122.89,122.86,122.89, 300
02/07/2020,17:39,122.86,122.86,122.77,122.77, 610
02/07/2020,17:40,122.77,122.78,122.74,122.74, 2834
02/07/2020,17:41,122.76,122.76,122.73,122.76, 676
02/07/2020,17:43,122.75,122.76,122.75,122.76, 400
02/07/2020,17:44,122.68,122.68,122.66,122.66, 204
02/07/2020,17:46,122.61,122.62,122.52,122.53, 1600
02/07/2020,17:47,122.49,122.55,122.48,122.52, 2700
02/07/2020,17:48,122.5,122.57,122.5,122.55, 900
02/07/2020,17:48,122.57,122.57,122.57,122.57, 100
02/07/2020,17:50,122.56,122.59,122.51,122.51, 700
02/07/2020,17:51,122.49,122.49,122.49,122.49, 100
02/07/2020,17:53,122.46,122.46,122.4,122.4, 1300
02/07/2020,17:53,122.4,122.47,122.4,122.47, 1302
02/07/2020,17:54,122.46,122.47,122.46,122.47, 300
02/07/2020,17:55,122.48,122.49,122.47,122.47, 1000
02/07/2020,17:57,122.46,122.46,122.45,122.45, 200
02/07/2020,17:58,122.46,122.46,122.46,122.46, 740
02/07/2020,17:59,122.48,122.5,122.47,122.48, 1107
02/07/2020,17:59,122.46,122.46,122.46,122.46, 100
02/07/2020,18:01,122.45,122.46,122.43,122.43, 386
02/07/2020,18:02,122.43,122.45,122.42,122.44, 2196
02/07/2020,18:03,122.44,122.49,122.44,122.49, 2300
02/07/2020,18:04,122.5,122.56,122.5,122.55, 1308
02/07/2020,18:05,122.56,122.59,122.56,122.59, 1300
02/07/2020,18:05,122.59,122.63,122.59,122.63, 1200
02/07/2020,18:07,122.64,122.65,122.64,122.65, 300
02/07/2020,18:08,122.65,122.66,122.65,122.66, 200
02/07/2020,18:09,122.66,122.68,122.64,122.68, 1400
02/07/2020,18:10,122.67,122.67,122.67,122.67, 200
02/07/2020,18:11,122.63,122.64,122.63,122.63, 800
02/07/2020,18:12,122.63,122.63,122.63,122.63, 400
02/07/2020,18:14,122.63,122.66,122.62,122.65, 1541
02/07/2020,18:15,122.66,122.66,122.66,122.66, 100
02/07/2020,18:16,122.66,122.67,122.66,122.67, 700
02/07/2020,18:17,122.65,122.65,122.62,122.62, 1956
02/07/2020,18:17,122.63,122.63,122.63,122.63, 100
02/07/2020,18:19,122.63,122.65,122.63,122.65, 700
02/07/2020,18:20,122.65,122.72,122.65,122.72, 1000
02/07/2020,18:21,122.71,122.71,122.66,122.66, 300
02/07/2020,18:21,122.71,122.73,122.71,122.73, 200
02/07/2020,18:23,122.68,122.68,122.68,122.68, 100
02/07/2020,18:24,122.65,122.65,122.59,122.59, 500
02/07/2020,18:25,122.59,122.68,122.59,122.68, 1500
02/07/2020,18:26,122.67,122.67,122.65,122.65, 400
02/07/2020,18:26,122.68,122.68,122.65,122.65, 300
02/07/2020,18:27,122.65,122.65,122.61,122.62, 300
02/07/2020,18:29,122.63,122.63,122.63,122.63, 600
02/07/2020,18:30,122.6,122.68,122.6,122.68, 2002
02/07/2020,18:31,122.7,122.73,122.7,122.73, 965
02/07/2020,18:32,122.72,122.75,122.71,122.72, 1300
02/07/2020,18:33,122.7,122.7,122.7,122.7, 600
02/07/2020,18:35,122.7,122.7,122.68,122.68, 499
02/07/2020,18:36,122.67,122.67,122.64,122.65, 649
02/07/2020,18:37,122.64,122.66,122.64,122.66, 500
02/07/2020,18:38,122.66,122.66,122.66,122.66, 200
02/07/2020,18:39,122.68,122.72,122.67,122.69, 1000
02/07/2020,18:40,122.69,122.7,122.69,122.69, 500
02/07/2020,18:40,122.71,122.71,122.69,122.69, 499
02/07/2020,18:42,122.66,122.66,122.62,122.62, 742
02/07/2020,18:42,122.6,122.61,122.6,122.61, 406
02/07/2020,18:44,122.58,122.6,122.57,122.57, 750
02/07/2020,18:45,122.59,122.59,122.59,122.59, 500
02/07/2020,18:46,122.6,122.6,122.59,122.59, 400
02/07/2020,18:47,122.58,122.58,122.58,122.58, 100
02/07/2020,18:48,122.58,122.58,122.53,122.53, 977
02/07/2020,18:49,122.53,122.55,122.53,122.55, 420
02/07/2020,18:50,122.54,122.55,122.5,122.51, 700
02/07/2020,18:50,122.55,122.55,122.54,122.54, 1100
02/07/2020,18:51,122.51,122.51,122.51,122.51, 227
02/07/2020,18:53,122.52,122.53,122.5,122.5, 1250
02/07/2020,18:54,122.51,122.52,122.49,122.52, 625
02/07/2020,18:55,122.5,122.5,122.5,122.5, 100
02/07/2020,18:56,122.51,122.52,122.5,122.51, 800
02/07/2020,18:56,122.5,122.52,122.5,122.52, 256
02/07/2020,18:58,122.5,122.53,122.5,122.5, 900
02/07/2020,18:58,122.55,122.58,122.54,122.58, 300
02/07/2020,19:00,122.57,122.57,122.57,122.57, 100
02/07/2020,19:01,122.51,122.51,122.51,122.51, 131
02/07/2020,19:03,122.48,122.53,122.48,122.53, 600
02/07/2020,19:04,122.53,122.54,122.52,122.53, 600
02/07/2020,19:05,122.52,122.54,122.52,122.53, 700
02/07/2020,19:06,122.51,122.53,122.51,122.52, 1100
02/07/2020,19:06,122.5,122.5,122.49,122.49, 200
02/07/2020,19:08,122.47,122.47,122.44,122.44, 1069
02/07/2020,19:08,122.46,122.47,122.45,122.45, 1200
02/07/2020,19:09,122.46,122.46,122.46,122.46, 100
02/07/2020,19:11,122.45,122.45,122.45,122.45, 200
02/07/2020,19:12,122.48,122.49,122.47,122.47, 400
02/07/2020,19:13,122.48,122.52,122.48,122.52, 1000
02/07/2020,19:14,122.5,122.5,122.49,122.49, 600
02/07/2020,19:16,122.52,122.57,122.52,122.57, 1200
02/07/2020,19:17,122.56,122.58,122.56,122.58, 200
02/07/2020,19:19,122.6,122.6,122.56,122.57, 425
02/07/2020,19:19,122.55,122.58,122.55,122.58, 300
02/07/2020,19:21,122.56,122.56,122.54,122.54, 400
02/07/2020,19:21,122.55,122.55,122.55,122.55, 100
02/07/2020,19:22,122.56,122.56,122.56,122.56, 100
02/07/2020,19:23,122.55,122.58,122.55,122.57, 600
02/07/2020,19:27,122.59,122.59,122.59,122.59, 100
02/07/2020,19:28,122.57,122.57,122.57,122.57, 200
02/07/2020,19:29,122.57,122.6,122.57,122.6, 900
02/07/2020,19:30,122.6,122.61,122.6,122.6, 1400
02/07/2020,19:32,122.62,122.68,122.62,122.68, 1864
02/07/2020,19:33,122.7,122.71,122.7,122.71, 300
02/07/2020,19:34,122.68,122.68,122.67,122.67, 300
02/07/2020,19:36,122.69,122.69,122.52,122.57, 2300
02/07/2020,19:37,122.57,122.69,122.57,122.61, 2300
02/07/2020,19:38,122.61,122.65,122.61,122.62, 1207
02/07/2020,19:38,122.65,122.65,122.61,122.61, 200
02/07/2020,19:39,122.58,122.58,122.57,122.57, 200
02/07/2020,19:41,122.57,122.59,122.57,122.59, 300
02/07/2020,19:42,122.59,122.61,122.59,122.61, 29930
02/07/2020,19:43,122.6,122.6,122.58,122.6, 900
02/07/2020,19:43,122.61,122.64,122.61,122.64, 400
02/07/2020,19:45,122.68,122.71,122.68,122.69, 300
02/07/2020,19:46,122.69,122.72,122.63,122.63, 2642
02/07/2020,19:48,122.6,122.6,122.6,122.6, 200
02/07/2020,19:48,122.58,122.6,122.58,122.6, 400
02/07/2020,19:49,122.61,122.61,122.61,122.61, 300
02/07/2020,19:51,122.6,122.6,122.58,122.6, 1099
02/07/2020,19:52,122.62,122.62,122.6,122.6, 700
02/07/2020,19:52,122.59,122.59,122.59,122.59, 261
02/07/2020,19:53,122.58,122.61,122.58,122.61, 425
02/07/2020,19:54,122.6,122.62,122.6,122.62, 1000
02/07/2020,19:56,122.61,122.61,122.61,122.61, 100
02/07/2020,19:57,122.63,122.63,122.62,122.62, 369
02/07/2020,19:58,122.63,122.63,122.52,122.52, 1991
02/07/2020,19:59,122.52,122.52,122.48,122.51, 1598
02/07/2020,20:00,122.48,122.5,122.48,122.48, 1000
02/07/2020,20:01,122.48,122.49,122.45,122.47, 1121
02/07/2020,20:02,122.42,122.43,122.4,122.4, 600
02/07/2020,20:03,122.4,122.41,122.37,122.39, 700
02/07/2020,20:04,122.37,122.43,122.35,122.39, 3307
02/07/2020,20:06,122.37,122.37,122.35,122.35, 800
02/07/2020,20:07,122.37,122.42,122.37,122.42, 1500
02/07/2020,20:08,122.44,122.46,122.44,122.46, 483
02/07/2020,20:09,122.46,122.46,122.42,122.44, 600
02/07/2020,20:10,122.32,122.34,122.32,122.34, 900
02/07/2020,20:10,122.4,122.41,122.4,122.4, 300
02/07/2020,20:11,122.42,122.42,122.42,122.42, 404
02/07/2020,20:14,122.41,122.42,122.41,122.41, 1108
02/07/2020,20:15,122.4,122.4,122.37,122.38, 856
02/07/2020,20:16,122.34,122.41,122.34,122.41, 1000
02/07/2020,20:17,122.43,122.46,122.43,122.46, 1000
02/07/2020,20:18,122.45,122.46,122.42,122.46, 1300
02/07/2020,20:19,122.46,122.48,122.43,122.48, 800
02/07/2020,20:20,122.5,122.52,122.49,122.5, 9327
02/07/2020,20:21,122.5,122.52,122.48,122.5, 2386
02/07/2020,20:22,122.5,122.5,122.46,122.5, 1804
02/07/2020,20:23,122.52,122.52,122.48,122.5, 961
02/07/2020,20:23,122.5,122.5,122.47,122.47, 200
02/07/2020,20:25,122.48,122.5,122.48,122.48, 600
02/07/2020,20:26,122.48,122.49,122.44,122.46, 1236
02/07/2020,20:27,122.46,122.46,122.44,122.46, 800
02/07/2020,20:28,122.48,122.5,122.47,122.47, 1100
02/07/2020,20:29,122.47,122.52,122.47,122.52, 1501
02/07/2020,20:30,122.52,122.54,122.52,122.52, 700
02/07/2020,20:31,122.55,122.59,122.55,122.58, 775
02/07/2020,20:31,122.6,122.67,122.6,122.65, 1200
02/07/2020,20:33,122.63,122.67,122.63,122.66, 1300
02/07/2020,20:33,122.67,122.67,122.67,122.67, 200
02/07/2020,20:35,122.68,122.68,122.65,122.68, 2100
02/07/2020,20:36,122.68,122.68,122.64,122.64, 7779
02/07/2020,20:37,122.58,122.58,122.55,122.56, 1577
02/07/2020,20:38,122.61,122.62,122.59,122.59, 700
02/07/2020,20:40,122.55,122.55,122.55,122.55, 100
02/07/2020,20:40,122.57,122.57,122.53,122.53, 1093
02/07/2020,20:42,122.52,122.52,122.5,122.5, 1000
02/07/2020,20:43,122.52,122.53,122.52,122.53, 1607
02/07/2020,20:44,122.59,122.59,122.55,122.58, 500
02/07/2020,20:44,122.61,122.61,122.59,122.59, 300
02/07/2020,20:46,122.61,122.69,122.59,122.62, 1600
02/07/2020,20:47,122.63,122.65,122.62,122.62, 4206
02/07/2020,20:48,122.61,122.62,122.61,122.62, 300
02/07/2020,20:48,122.59,122.59,122.59,122.59, 100
02/07/2020,20:50,122.59,122.59,122.56,122.59, 400
02/07/2020,20:51,122.56,122.59,122.56,122.59, 700
02/07/2020,20:51,122.57,122.57,122.54,122.56, 1320
02/07/2020,20:53,122.57,122.57,122.51,122.51, 504
02/07/2020,20:53,122.51,122.53,122.51,122.53, 500
02/07/2020,20:55,122.5,122.52,122.45,122.45, 815
02/07/2020,20:55,122.45,122.55,122.45,122.55, 3023
02/07/2020,20:56,122.56,122.58,122.44,122.44, 6532
02/07/2020,20:58,122.5,122.51,122.42,122.44, 2999
02/07/2020,20:59,122.45,122.45,122.42,122.42, 563
02/07/2020,21:00,122.41,122.41,122.38,122.38, 305
02/07/2020,21:00,122.32,122.32,122.32,122.32, 320
02/07/2020,21:02,122.32,122.35,122.31,122.35, 3238
02/07/2020,21:03,122.39,122.43,122.39,122.41, 1230
02/07/2020,21:03,122.39,122.39,122.39,122.39, 125
02/07/2020,21:05,122.39,122.41,122.35,122.35, 1315
02/07/2020,21:06,122.33,122.34,122.31,122.31, 400
02/07/2020,21:08,122.34,122.36,122.31,122.33, 3362
02/07/2020,21:08,122.31,122.35,122.29,122.35, 1481
02/07/2020,21:10,122.42,122.42,122.42,122.42, 100
02/07/2020,21:12,122.38,122.38,122.34,122.36, 787
02/07/2020,21:13,122.38,122.39,122.33,122.33, 959
02/07/2020,21:14,122.32,122.37,122.29,122.29, 511
02/07/2020,21:14,122.31,122.33,122.29,122.33, 2613
02/07/2020,21:16,122.33,122.33,122.3,122.32, 500
02/07/2020,21:17,122.35,122.38,122.35,122.36, 300
02/07/2020,21:18,122.32,122.35,122.32,122.35, 741
02/07/2020,21:18,122.35,122.36,122.35,122.36, 1275
02/07/2020,21:21,122.38,122.38,122.36,122.36, 576
02/07/2020,21:22,122.34,122.35,122.34,122.35, 500
02/07/2020,21:24,122.34,122.34,122.29,122.29, 400
02/07/2020,21:25,122.27,122.32,122.27,122.32, 2751
02/07/2020,21:26,122.31,122.34,122.31,122.31, 1241
02/07/2020,21:27,122.32,122.33,122.32,122.33, 1525
02/07/2020,21:28,122.32,122.35,122.32,122.35, 863
02/07/2020,21:29,122.38,122.39,122.38,122.39, 400
02/07/2020,21:30,122.4,122.4,122.38,122.39, 1252
02/07/2020,21:31,122.39,122.39,122.35,122.37, 1547
02/07/2020,21:32,122.37,122.41,122.37,122.41, 1000
02/07/2020,21:32,122.4,122.41,122.35,122.36, 1818
02/07/2020,21:34,122.34,122.37,122.34,122.35, 1556
02/07/2020,21:35,122.36,122.45,122.36,122.45, 1321
02/07/2020,21:36,122.45,122.47,122.45,122.46, 1250
02/07/2020,21:37,122.46,122.48,122.46,122.48, 625
02/07/2020,21:38,122.46,122.48,122.43,122.43, 2231
02/07/2020,21:39,122.43,122.43,122.4,122.43, 1439
02/07/2020,21:40,122.44,122.44,122.44,122.44, 700
02/07/2020,21:41,122.44,122.45,122.42,122.44, 2306
02/07/2020,21:42,122.45,122.53,122.44,122.53, 1268
02/07/2020,21:43,122.51,122.55,122.51,122.52, 726
02/07/2020,21:44,122.53,122.54,122.53,122.53, 1200
02/07/2020,21:45,122.51,122.54,122.5,122.54, 2323
02/07/2020,21:46,122.52,122.52,122.5,122.51, 1413
02/07/2020,21:47,122.5,122.54,122.5,122.54, 1873
02/07/2020,21:48,122.6,122.63,122.6,122.6, 1696
02/07/2020,21:49,122.59,122.59,122.56,122.56, 1600
02/07/2020,21:50,122.57,122.6,122.57,122.59, 4916
02/07/2020,21:51,122.61,122.61,122.55,122.57, 5179
02/07/2020,21:52,122.57,122.62,122.57,122.57, 2277
02/07/2020,21:53,122.59,122.61,122.59,122.6, 5418
02/07/2020,21:54,122.6,122.61,122.57,122.58, 2534
02/07/2020,21:55,122.58,122.58,122.48,122.48, 4814
02/07/2020,21:56,122.46,122.47,122.37,122.37, 5199
02/07/2020,21:57,122.38,122.5,122.38,122.5, 7729
02/07/2020,21:58,122.5,122.54,122.45,122.47, 7433
02/07/2020,21:59,122.48,122.56,122.45,122.55, 11367
02/07/2020,22:00,122.56,122.67,122.52,122.65, 28327
02/07/2020,22:01,122.68,122.68,122.52,122.61, 36435
02/07/2020,22:05,122.61,122.61,122.61,122.61, 320459
02/10/2020,15:31,122,122,121.75,121.75, 2530
02/10/2020,15:32,121.47,121.48,121.33,121.33, 2304
02/10/2020,15:33,121.52,121.66,121.27,121.27, 800
02/10/2020,15:34,121.58,121.72,121.47,121.61, 944
02/10/2020,15:35,121.72,121.72,121.72,121.72, 300
02/10/2020,15:36,121.49,121.67,121.47,121.56, 3867
02/10/2020,15:37,121.48,121.64,121.42,121.47, 9327
02/10/2020,15:38,121.5,121.95,121.5,121.63, 1085
02/10/2020,15:39,121.66,121.91,121.66,121.91, 200
02/10/2020,15:40,121.76,121.89,121.73,121.79, 600
02/10/2020,15:41,122.02,122.02,121.84,121.86, 1699
02/10/2020,15:42,122.01,122.01,121.8,121.8, 700
02/10/2020,15:44,121.81,121.87,121.81,121.87, 1000
02/10/2020,15:45,121.82,121.82,121.68,121.68, 400
02/10/2020,15:46,121.8,121.8,121.8,121.8, 200
02/10/2020,15:47,121.8,121.8,121.67,121.67, 4289
02/10/2020,15:48,121.69,121.78,121.68,121.78, 1144
02/10/2020,15:49,121.77,121.78,121.7,121.76, 1900
02/10/2020,15:50,121.78,121.78,121.64,121.71, 1019
02/10/2020,15:51,121.72,121.72,121.72,121.72, 478
02/10/2020,15:52,121.66,121.69,121.54,121.55, 2050
02/10/2020,15:55,121.61,121.63,121.6,121.61, 935
02/10/2020,15:56,121.62,121.7,121.61,121.7, 1754
02/10/2020,15:58,121.66,121.76,121.66,121.73, 4428
02/10/2020,15:59,121.72,121.79,121.72,121.78, 5455
02/10/2020,16:00,121.78,121.81,121.74,121.74, 1301
02/10/2020,16:01,121.81,121.86,121.77,121.86, 2172
02/10/2020,16:02,121.83,121.84,121.83,121.84, 784
02/10/2020,16:03,121.83,121.85,121.77,121.77, 2160
02/10/2020,16:04,121.8,121.82,121.73,121.73, 2393
02/10/2020,16:05,121.73,121.73,121.56,121.56, 1201
02/10/2020,16:06,121.56,121.57,121.49,121.49, 1100
02/10/2020,16:07,121.5,121.53,121.45,121.45, 1400
02/10/2020,16:08,121.49,121.57,121.44,121.57, 46015
02/10/2020,16:09,121.57,121.77,121.57,121.77, 2014
02/10/2020,16:10,121.79,121.79,121.67,121.67, 800
02/10/2020,16:11,121.77,121.77,121.72,121.75, 604
02/10/2020,16:12,121.73,121.73,121.63,121.66, 1546
02/10/2020,16:13,121.63,121.72,121.63,121.67, 1800
02/10/2020,16:14,121.73,121.74,121.69,121.7, 4454
02/10/2020,16:15,121.68,121.68,121.51,121.61, 2404
02/10/2020,16:16,121.54,121.57,121.51,121.55, 1400
02/10/2020,16:16,121.53,121.62,121.53,121.54, 1600
02/10/2020,16:18,121.64,121.66,121.6,121.65, 1935
02/10/2020,16:19,121.65,121.66,121.63,121.64, 1550
02/10/2020,16:20,121.67,121.67,121.55,121.55, 900
02/10/2020,16:21,121.58,121.61,121.56,121.61, 1500
02/10/2020,16:22,121.53,121.55,121.43,121.43, 1144
02/10/2020,16:23,121.39,121.47,121.39,121.42, 551
02/10/2020,16:24,121.44,121.5,121.43,121.5, 1300
02/10/2020,16:25,121.48,121.52,121.38,121.52, 900
02/10/2020,16:26,121.39,121.4,121.39,121.39, 300
02/10/2020,16:27,121.37,121.47,121.37,121.43, 674
02/10/2020,16:28,121.39,121.39,121.27,121.27, 1000
02/10/2020,16:29,121.29,121.29,121.21,121.21, 593
02/10/2020,16:30,121.21,121.39,121.21,121.39, 2147
02/10/2020,16:31,121.35,121.36,121.33,121.35, 1501
02/10/2020,16:33,121.4,121.43,121.39,121.39, 500
02/10/2020,16:34,121.42,121.42,121.38,121.41, 527
02/10/2020,16:35,121.39,121.44,121.39,121.42, 1729
02/10/2020,16:36,121.43,121.43,121.37,121.37, 802
02/10/2020,16:37,121.42,121.42,121.32,121.36, 2094
02/10/2020,16:38,121.32,121.35,121.3,121.31, 400
02/10/2020,16:39,121.3,121.31,121.26,121.3, 1900
02/10/2020,16:40,121.28,121.32,121.25,121.29, 3419
02/10/2020,16:41,121.3,121.33,121.3,121.31, 700
02/10/2020,16:42,121.33,121.33,121.28,121.28, 436
02/10/2020,16:43,121.27,121.27,121.11,121.11, 1200
02/10/2020,16:44,121.13,121.17,121.08,121.09, 508
02/10/2020,16:45,121.16,121.16,121.11,121.14, 500
02/10/2020,16:46,121.1,121.18,121.08,121.18, 2109
02/10/2020,16:47,121.18,121.18,121.15,121.15, 200
02/10/2020,16:48,121.15,121.17,121.05,121.07, 2012
02/10/2020,16:49,121.06,121.11,121.06,121.08, 2532
02/10/2020,16:50,121.1,121.14,121.1,121.13, 1529
02/10/2020,16:51,121.15,121.15,121.12,121.15, 400
02/10/2020,16:52,121.1,121.12,121.05,121.06, 2444
02/10/2020,16:53,121.02,121.05,120.97,120.98, 3936
02/10/2020,16:54,121.05,121.06,121,121.04, 2982
02/10/2020,16:55,121.03,121.03,120.96,121.01, 2800
02/10/2020,16:56,121.02,121.02,120.98,120.98, 501
02/10/2020,16:57,120.95,120.95,120.93,120.93, 200
02/10/2020,16:58,120.95,120.97,120.93,120.96, 1401
02/10/2020,16:59,120.9,120.9,120.8,120.82, 501
02/10/2020,17:00,120.84,120.94,120.84,120.93, 1700
02/10/2020,17:01,120.94,120.94,120.9,120.92, 1000
02/10/2020,17:02,120.93,120.93,120.89,120.9, 1100
02/10/2020,17:03,120.92,120.96,120.92,120.95, 847
02/10/2020,17:04,120.98,121.08,120.97,120.98, 2937
02/10/2020,17:05,121.04,121.09,121.02,121.07, 726
02/10/2020,17:06,121.14,121.15,121.14,121.15, 275
02/10/2020,17:07,121.11,121.11,121,121, 1860
02/10/2020,17:08,121,121,120.94,120.97, 6808
02/10/2020,17:09,120.97,121.02,120.95,120.99, 2509
02/10/2020,17:10,120.99,120.99,120.92,120.93, 2820
02/10/2020,17:11,120.92,120.92,120.92,120.92, 200
02/10/2020,17:12,120.92,120.96,120.91,120.91, 1100
02/10/2020,17:13,120.86,120.91,120.86,120.91, 1257
02/10/2020,17:14,120.9,121.02,120.9,121.02, 2552
02/10/2020,17:15,121.07,121.07,121.07,121.07, 201
02/10/2020,17:16,121.09,121.15,121.07,121.15, 1727
02/10/2020,17:17,121.14,121.14,121.13,121.13, 235
02/10/2020,17:18,121.17,121.17,121.1,121.1, 2300
02/10/2020,17:19,121.17,121.17,121.09,121.1, 1185
02/10/2020,17:20,121.06,121.06,121.06,121.06, 2900
02/10/2020,17:21,121.06,121.06,121.06,121.06, 100
02/10/2020,17:22,121.1,121.12,121.01,121.05, 1563
02/10/2020,17:23,121.05,121.05,120.91,120.91, 1200
02/10/2020,17:24,120.94,120.97,120.94,120.97, 301
02/10/2020,17:25,120.97,120.97,120.86,120.97, 1600
02/10/2020,17:26,120.95,121.03,120.93,121.02, 17527
02/10/2020,17:27,121.02,121.19,121.02,121.09, 10834
02/10/2020,17:28,121.09,121.22,121.08,121.22, 20946
02/10/2020,17:29,121.22,121.29,121.22,121.29, 500
02/10/2020,17:30,121.24,121.29,121.14,121.14, 2086
02/10/2020,17:31,121.17,121.29,121.17,121.29, 1600
02/10/2020,17:32,121.29,121.29,121.23,121.23, 793
02/10/2020,17:33,121.23,121.23,121.12,121.12, 1051
02/10/2020,17:34,121.08,121.1,121.05,121.09, 5382
02/10/2020,17:35,121.04,121.04,121.04,121.04, 100
02/10/2020,17:36,120.97,121.03,120.96,120.96, 500
02/10/2020,17:37,121,121.06,120.97,121.01, 1807
02/10/2020,17:39,121,121,120.88,120.93, 893
02/10/2020,17:40,120.9,120.96,120.85,120.93, 2772
02/10/2020,17:41,120.93,120.93,120.9,120.9, 500
02/10/2020,17:42,120.9,120.91,120.86,120.91, 700
02/10/2020,17:43,120.89,120.94,120.89,120.89, 3100
02/10/2020,17:44,120.92,120.92,120.89,120.89, 1210
02/10/2020,17:45,120.86,120.87,120.81,120.84, 570
02/10/2020,17:46,120.85,120.86,120.79,120.84, 2000
02/10/2020,17:47,120.86,120.86,120.83,120.86, 910
02/10/2020,17:48,120.86,120.88,120.85,120.86, 1407
02/10/2020,17:49,120.86,120.88,120.76,120.79, 1300
02/10/2020,17:50,120.76,120.77,120.76,120.77, 200
02/10/2020,17:51,120.73,120.76,120.73,120.76, 850
02/10/2020,17:52,120.79,120.86,120.78,120.78, 2224
02/10/2020,17:53,120.78,120.84,120.78,120.84, 300
02/10/2020,17:54,120.85,120.85,120.81,120.81, 600
02/10/2020,17:55,120.82,120.82,120.76,120.78, 937
02/10/2020,17:56,120.76,120.84,120.74,120.84, 2722
02/10/2020,17:57,120.85,120.85,120.81,120.81, 200
02/10/2020,17:58,120.81,120.85,120.75,120.75, 2295
02/10/2020,17:59,120.79,120.85,120.78,120.84, 1100
02/10/2020,18:00,120.84,120.85,120.77,120.81, 22697
02/10/2020,18:01,120.82,120.82,120.75,120.79, 1220
02/10/2020,18:02,120.78,120.84,120.7,120.71, 5192
02/10/2020,18:03,120.7,120.76,120.69,120.73, 5107
02/10/2020,18:04,120.73,120.75,120.7,120.73, 19432
02/10/2020,18:05,120.71,120.71,120.65,120.68, 2500
02/10/2020,18:06,120.67,120.69,120.65,120.69, 2594
02/10/2020,18:07,120.66,120.68,120.61,120.68, 4157
02/10/2020,18:08,120.67,120.67,120.63,120.63, 1600
02/10/2020,18:09,120.62,120.62,120.58,120.59, 1695
02/10/2020,18:10,120.59,120.6,120.55,120.56, 1424
02/10/2020,18:11,120.53,120.55,120.51,120.55, 800
02/10/2020,18:12,120.55,120.59,120.55,120.58, 1600
02/10/2020,18:13,120.6,120.6,120.53,120.53, 499
02/10/2020,18:14,120.51,120.6,120.49,120.6, 2015
02/10/2020,18:15,120.63,120.65,120.62,120.65, 835
02/10/2020,18:16,120.65,120.65,120.58,120.61, 1100
02/10/2020,18:17,120.63,120.65,120.63,120.65, 900
02/10/2020,18:18,120.64,120.66,120.62,120.63, 1600
02/10/2020,18:19,120.65,120.65,120.6,120.65, 104016
02/10/2020,18:20,120.65,120.74,120.65,120.68, 41533
02/10/2020,18:21,120.7,120.7,120.62,120.64, 5298
02/10/2020,18:22,120.62,120.64,120.59,120.64, 9039
02/10/2020,18:23,120.62,120.62,120.61,120.61, 400
02/10/2020,18:24,120.58,120.62,120.55,120.55, 2244
02/10/2020,18:25,120.57,120.62,120.54,120.6, 2595
02/10/2020,18:26,120.59,120.61,120.59,120.61, 1100
02/10/2020,18:27,120.59,120.6,120.59,120.6, 625
02/10/2020,18:28,120.58,120.58,120.52,120.55, 4470
02/10/2020,18:29,120.56,120.62,120.56,120.61, 4521
02/10/2020,18:30,120.59,120.75,120.59,120.71, 15679
02/10/2020,18:31,120.72,120.72,120.63,120.65, 11795
02/10/2020,18:32,120.65,120.66,120.63,120.65, 4622
02/10/2020,18:33,120.65,120.72,120.61,120.69, 18601
02/10/2020,18:34,120.7,120.71,120.66,120.7, 7009
02/10/2020,18:35,120.7,120.7,120.62,120.62, 20067
02/10/2020,18:36,120.63,120.66,120.55,120.6, 6451
02/10/2020,18:37,120.6,120.6,120.55,120.6, 2661
02/10/2020,18:38,120.57,120.57,120.53,120.56, 1400
02/10/2020,18:39,120.59,120.59,120.56,120.57, 400
02/10/2020,18:40,120.56,120.59,120.56,120.59, 2366
02/10/2020,18:41,120.59,120.61,120.57,120.57, 1300
02/10/2020,18:42,120.58,120.59,120.57,120.57, 400
02/10/2020,18:43,120.57,120.62,120.56,120.6, 3501
02/10/2020,18:44,120.58,120.58,120.58,120.58, 300
02/10/2020,18:45,120.57,120.6,120.56,120.6, 1701
02/10/2020,18:46,120.6,120.6,120.55,120.6, 1790
02/10/2020,18:47,120.61,120.62,120.6,120.61, 9329
02/10/2020,18:48,120.62,120.62,120.61,120.61, 8348
02/10/2020,18:49,120.61,120.72,120.61,120.69, 9697
02/10/2020,18:50,120.7,120.74,120.68,120.74, 4300
02/10/2020,18:51,120.73,120.73,120.66,120.72, 4800
02/10/2020,18:52,120.72,120.78,120.65,120.68, 11576
02/10/2020,18:53,120.68,120.68,120.66,120.66, 518
02/10/2020,18:54,120.64,120.67,120.63,120.63, 2100
02/10/2020,18:55,120.61,120.65,120.6,120.63, 1300
02/10/2020,18:56,120.63,120.63,120.63,120.63, 308
02/10/2020,18:57,120.64,120.64,120.62,120.62, 600
02/10/2020,18:58,120.61,120.63,120.58,120.63, 1121
02/10/2020,18:59,120.63,120.63,120.58,120.58, 980
02/10/2020,19:00,120.62,120.63,120.61,120.62, 1708
02/10/2020,19:01,120.63,120.65,120.6,120.64, 2100
02/10/2020,19:02,120.64,120.64,120.59,120.59, 2025
02/10/2020,19:03,120.6,120.6,120.56,120.58, 14434
02/10/2020,19:04,120.56,120.6,120.55,120.55, 2412
02/10/2020,19:05,120.55,120.6,120.55,120.57, 600
02/10/2020,19:06,120.57,120.57,120.53,120.55, 2100
02/10/2020,19:07,120.5,120.51,120.5,120.51, 600
02/10/2020,19:08,120.52,120.54,120.5,120.52, 804
02/10/2020,19:09,120.54,120.62,120.53,120.62, 1100
02/10/2020,19:10,120.6,120.64,120.6,120.62, 800
02/10/2020,19:11,120.61,120.64,120.61,120.62, 1119
02/10/2020,19:12,120.63,120.65,120.6,120.6, 3630
02/10/2020,19:13,120.62,120.62,120.57,120.58, 2215
02/10/2020,19:14,120.57,120.58,120.55,120.55, 600
02/10/2020,19:15,120.54,120.54,120.49,120.49, 552
02/10/2020,19:16,120.5,120.52,120.49,120.49, 2000
02/10/2020,19:17,120.5,120.5,120.49,120.49, 400
02/10/2020,19:18,120.5,120.53,120.45,120.48, 3420
02/10/2020,19:19,120.46,120.49,120.44,120.47, 2237
02/10/2020,19:20,120.52,120.55,120.5,120.55, 602
02/10/2020,19:21,120.52,120.55,120.52,120.52, 1187
02/10/2020,19:22,120.49,120.57,120.46,120.57, 3900
02/10/2020,19:23,120.57,120.61,120.57,120.61, 1000
02/10/2020,19:24,120.62,120.62,120.57,120.57, 773
02/10/2020,19:25,120.6,120.6,120.54,120.57, 1303
02/10/2020,19:26,120.58,120.58,120.58,120.58, 100
02/10/2020,19:27,120.55,120.57,120.55,120.57, 557
02/10/2020,19:28,120.56,120.57,120.53,120.53, 1100
02/10/2020,19:29,120.54,120.55,120.51,120.51, 1150
02/10/2020,19:30,120.51,120.51,120.48,120.48, 6000
02/10/2020,19:31,120.52,120.62,120.52,120.61, 3421
02/10/2020,19:32,120.61,120.65,120.61,120.65, 5999
02/10/2020,19:33,120.64,120.65,120.63,120.65, 2300
02/10/2020,19:34,120.63,120.64,120.59,120.59, 2720
02/10/2020,19:35,120.61,120.61,120.6,120.6, 300
02/10/2020,19:36,120.61,120.61,120.58,120.6, 697
02/10/2020,19:37,120.58,120.59,120.52,120.54, 15358
02/10/2020,19:38,120.54,120.58,120.54,120.54, 2832
02/10/2020,19:39,120.55,120.56,120.53,120.55, 1042
02/10/2020,19:40,120.55,120.55,120.5,120.53, 1104
02/10/2020,19:41,120.51,120.56,120.51,120.51, 5682
02/10/2020,19:42,120.51,120.51,120.48,120.49, 1492
02/10/2020,19:43,120.49,120.5,120.43,120.44, 4847
02/10/2020,19:44,120.44,120.46,120.43,120.45, 3266
02/10/2020,19:45,120.46,120.46,120.45,120.45, 680
02/10/2020,19:46,120.46,120.46,120.43,120.43, 1896
02/10/2020,19:47,120.42,120.43,120.41,120.42, 1476
02/10/2020,19:48,120.39,120.44,120.39,120.44, 3598
02/10/2020,19:49,120.44,120.5,120.43,120.5, 1957
02/10/2020,19:50,120.51,120.55,120.51,120.55, 2463
02/10/2020,19:51,120.56,120.56,120.56,120.56, 400
02/10/2020,19:52,120.57,120.57,120.5,120.55, 3100
02/10/2020,19:53,120.56,120.59,120.56,120.59, 1000
02/10/2020,19:54,120.58,120.58,120.53,120.53, 600
02/10/2020,19:55,120.56,120.56,120.5,120.5, 2067
02/10/2020,19:56,120.5,120.57,120.5,120.57, 3610
02/10/2020,19:57,120.58,120.58,120.51,120.55, 1403
02/10/2020,19:58,120.56,120.57,120.53,120.56, 3827
02/10/2020,19:59,120.56,120.56,120.49,120.51, 4053
02/10/2020,20:00,120.52,120.57,120.52,120.56, 6302
02/10/2020,20:01,120.59,120.62,120.57,120.61, 2400
02/10/2020,20:02,120.61,120.67,120.61,120.62, 3486
02/10/2020,20:03,120.64,120.68,120.64,120.67, 1800
02/10/2020,20:04,120.64,120.64,120.58,120.61, 1100
02/10/2020,20:05,120.61,120.62,120.61,120.62, 1100
02/10/2020,20:06,120.62,120.64,120.62,120.63, 1209
02/10/2020,20:07,120.61,120.64,120.6,120.62, 2254
02/10/2020,20:08,120.62,120.62,120.48,120.62, 5774
02/10/2020,20:09,120.65,120.71,120.61,120.65, 4500
02/10/2020,20:10,120.62,120.62,120.55,120.57, 1201
02/10/2020,20:11,120.57,120.57,120.52,120.55, 2100
02/10/2020,20:12,120.53,120.59,120.53,120.57, 4026
02/10/2020,20:13,120.55,120.58,120.53,120.54, 1141
02/10/2020,20:14,120.55,120.55,120.55,120.55, 200
02/10/2020,20:15,120.55,120.55,120.53,120.53, 500
02/10/2020,20:16,120.55,120.58,120.55,120.57, 7850
02/10/2020,20:17,120.59,120.61,120.59,120.6, 4400
02/10/2020,20:18,120.6,120.63,120.6,120.62, 3962
02/10/2020,20:19,120.63,120.63,120.58,120.6, 1320
02/10/2020,20:20,120.58,120.58,120.54,120.56, 1080
02/10/2020,20:21,120.54,120.54,120.47,120.48, 1750
02/10/2020,20:22,120.5,120.5,120.42,120.42, 722
02/10/2020,20:23,120.38,120.4,120.36,120.39, 1717
02/10/2020,20:24,120.4,120.43,120.4,120.42, 1851
02/10/2020,20:25,120.46,120.46,120.42,120.42, 19201
02/10/2020,20:26,120.48,120.52,120.45,120.52, 1199
02/10/2020,20:27,120.56,120.62,120.56,120.62, 5101
02/10/2020,20:28,120.6,120.6,120.57,120.59, 801
02/10/2020,20:29,120.6,120.7,120.6,120.7, 3200
02/10/2020,20:30,120.69,120.7,120.68,120.69, 8322
02/10/2020,20:31,120.69,120.71,120.64,120.65, 5132
02/10/2020,20:32,120.67,120.76,120.67,120.76, 1097
02/10/2020,20:33,120.76,120.78,120.7,120.71, 2531
02/10/2020,20:34,120.71,120.72,120.68,120.7, 2005
02/10/2020,20:35,120.69,120.69,120.69,120.69, 300
02/10/2020,20:36,120.66,120.67,120.66,120.67, 2326
02/10/2020,20:37,120.68,120.72,120.68,120.72, 1100
02/10/2020,20:38,120.74,120.74,120.7,120.72, 1200
02/10/2020,20:39,120.73,120.74,120.73,120.74, 400
02/10/2020,20:40,120.71,120.71,120.66,120.71, 2300
02/10/2020,20:41,120.69,120.69,120.67,120.69, 700
02/10/2020,20:42,120.67,120.67,120.65,120.65, 500
02/10/2020,20:43,120.65,120.67,120.62,120.64, 1930
02/10/2020,20:43,120.63,120.68,120.63,120.67, 2261
02/10/2020,20:44,120.65,120.68,120.65,120.68, 1036
02/10/2020,20:46,120.69,120.71,120.69,120.69, 900
02/10/2020,20:47,120.7,120.71,120.69,120.7, 1200
02/10/2020,20:48,120.7,120.72,120.69,120.7, 1000
02/10/2020,20:49,120.7,120.71,120.65,120.65, 1100
02/10/2020,20:50,120.65,120.71,120.63,120.71, 1536
02/10/2020,20:51,120.7,120.72,120.7,120.72, 500
02/10/2020,20:52,120.72,120.72,120.69,120.69, 1395
02/10/2020,20:53,120.69,120.69,120.67,120.69, 400
02/10/2020,20:54,120.67,120.69,120.67,120.69, 1000
02/10/2020,20:55,120.65,120.66,120.64,120.66, 1300
02/10/2020,20:56,120.65,120.66,120.62,120.63, 1204
02/10/2020,20:57,120.64,120.68,120.63,120.68, 2067
02/10/2020,20:58,120.7,120.73,120.65,120.73, 3897
02/10/2020,20:59,120.76,120.82,120.76,120.8, 600
02/10/2020,21:00,120.83,120.87,120.81,120.83, 2542
02/10/2020,21:01,120.84,120.84,120.72,120.74, 1100
02/10/2020,21:02,120.71,120.77,120.71,120.77, 1029
02/10/2020,21:03,120.79,120.85,120.79,120.84, 1882
02/10/2020,21:04,120.81,120.81,120.79,120.8, 800
02/10/2020,21:05,120.81,120.82,120.81,120.82, 200
02/10/2020,21:06,120.77,120.77,120.77,120.77, 100
02/10/2020,21:07,120.77,120.81,120.75,120.81, 3362
02/10/2020,21:08,120.8,120.83,120.79,120.8, 2394
02/10/2020,21:09,120.81,120.81,120.79,120.79, 604
02/10/2020,21:10,120.81,120.83,120.79,120.81, 2776
02/10/2020,21:11,120.79,120.79,120.77,120.79, 1589
02/10/2020,21:12,120.81,120.83,120.77,120.83, 2316
02/10/2020,21:13,120.83,120.84,120.77,120.83, 1868
02/10/2020,21:14,120.84,120.84,120.82,120.82, 551
02/10/2020,21:15,120.81,120.81,120.77,120.77, 200
02/10/2020,21:16,120.78,120.78,120.74,120.74, 1201
02/10/2020,21:17,120.77,120.77,120.76,120.77, 855
02/10/2020,21:17,120.75,120.77,120.75,120.77, 318
02/10/2020,21:19,120.77,120.78,120.73,120.77, 6264
02/10/2020,21:20,120.78,120.78,120.73,120.73, 1750
02/10/2020,21:21,120.73,120.87,120.73,120.87, 2945
02/10/2020,21:22,120.85,120.85,120.79,120.85, 2920
02/10/2020,21:23,120.86,120.91,120.86,120.91, 1364
02/10/2020,21:24,120.9,120.9,120.86,120.87, 1626
02/10/2020,21:25,120.86,120.86,120.79,120.79, 1472
02/10/2020,21:26,120.81,120.95,120.81,120.9, 7087
02/10/2020,21:27,120.92,120.93,120.92,120.92, 515
02/10/2020,21:28,120.89,120.89,120.83,120.85, 3746
02/10/2020,21:29,120.85,120.88,120.85,120.85, 2394
02/10/2020,21:30,120.85,120.85,120.79,120.81, 1800
02/10/2020,21:31,120.81,120.84,120.77,120.84, 2300
02/10/2020,21:32,120.84,120.86,120.75,120.75, 7226
02/10/2020,21:33,120.75,120.77,120.71,120.73, 2055
02/10/2020,21:34,120.73,120.73,120.67,120.68, 2858
02/10/2020,21:35,120.69,120.75,120.67,120.73, 4165
02/10/2020,21:36,120.76,120.77,120.7,120.71, 5775
02/10/2020,21:37,120.71,120.77,120.69,120.77, 6267
02/10/2020,21:38,120.76,120.87,120.72,120.87, 4066
02/10/2020,21:39,120.89,120.89,120.87,120.87, 900
02/10/2020,21:40,120.86,120.86,120.78,120.81, 4921
02/10/2020,21:41,120.8,120.81,120.75,120.75, 3700
02/10/2020,21:42,120.74,120.79,120.72,120.79, 6057
02/10/2020,21:43,120.81,120.81,120.73,120.73, 4912
02/10/2020,21:44,120.7,120.74,120.67,120.74, 5433
02/10/2020,21:45,120.73,120.74,120.65,120.7, 3278
02/10/2020,21:46,120.68,120.71,120.66,120.68, 4850
02/10/2020,21:47,120.69,120.71,120.68,120.7, 2545
02/10/2020,21:48,120.7,120.7,120.68,120.69, 2105
02/10/2020,21:49,120.68,120.68,120.61,120.64, 3204
02/10/2020,21:50,120.65,120.76,120.65,120.74, 3253
02/10/2020,21:51,120.72,120.76,120.66,120.67, 3905
02/10/2020,21:52,120.67,120.7,120.66,120.67, 4393
02/10/2020,21:53,120.66,120.7,120.63,120.67, 7514
02/10/2020,21:54,120.67,120.68,120.64,120.67, 8651
02/10/2020,21:55,120.67,120.73,120.65,120.73, 12861
02/10/2020,21:56,120.74,120.8,120.67,120.73, 10032
02/10/2020,21:57,120.73,120.74,120.68,120.69, 17927
02/10/2020,21:58,120.69,120.73,120.66,120.67, 16578
02/10/2020,21:59,120.67,120.75,120.67,120.74, 18546
02/10/2020,22:00,120.75,120.85,120.64,120.74, 40604
02/10/2020,22:01,120.77,120.91,120.71,120.87, 31855
02/10/2020,22:05,120.89,120.89,120.89,120.89, 248270
02/11/2020,15:31,121.46,121.46,121.2,121.23, 13429
02/11/2020,15:32,121.34,121.34,121.29,121.29, 605
02/11/2020,15:33,121.29,121.31,121.29,121.31, 500
02/11/2020,15:34,121.36,121.36,121.36,121.36, 100
02/11/2020,15:36,121.42,121.44,121.37,121.44, 700
02/11/2020,15:37,121.44,121.44,121.35,121.35, 1967
02/11/2020,15:40,121.66,121.67,121.66,121.67, 600
02/11/2020,15:41,121.54,121.81,121.53,121.81, 2718
02/11/2020,15:42,121.77,121.81,121.7,121.7, 800
02/11/2020,15:43,121.79,121.88,121.78,121.88, 600
02/11/2020,15:44,121.77,121.85,121.72,121.77, 1300
02/11/2020,15:45,121.76,121.76,121.73,121.73, 556
02/11/2020,15:47,121.74,121.8,121.74,121.8, 300
02/11/2020,15:48,121.75,121.91,121.75,121.87, 2781
02/11/2020,15:50,121.95,121.95,121.95,121.95, 100
02/11/2020,15:51,121.99,121.99,121.99,121.99, 100
02/11/2020,15:52,122.02,122.13,122.02,122.13, 2117
02/11/2020,15:53,122.06,122.11,122.02,122.11, 600
02/11/2020,15:54,122.13,122.13,122.13,122.13, 100
02/11/2020,15:55,122.19,122.23,122.19,122.23, 805
02/11/2020,15:56,122.18,122.22,122.16,122.22, 3300
02/11/2020,15:57,122.27,122.31,122.25,122.25, 507
02/11/2020,15:58,122.26,122.43,122.25,122.38, 4131
02/11/2020,15:59,122.35,122.35,122.27,122.32, 1600
02/11/2020,16:00,122.27,122.41,122.23,122.39, 2251
02/11/2020,16:01,122.37,122.42,122.36,122.41, 1138
02/11/2020,16:02,122.4,122.46,122.39,122.39, 2631
02/11/2020,16:03,122.45,122.47,122.4,122.45, 1100
02/11/2020,16:04,122.52,122.54,122.49,122.54, 600
02/11/2020,16:05,122.57,122.72,122.57,122.69, 1816
02/11/2020,16:06,122.75,122.75,122.68,122.68, 850
02/11/2020,16:07,122.68,122.7,122.62,122.64, 2307
02/11/2020,16:08,122.63,122.7,122.62,122.62, 1300
02/11/2020,16:09,122.61,122.63,122.57,122.59, 1095
02/11/2020,16:10,122.57,122.62,122.57,122.58, 700
02/11/2020,16:11,122.64,122.71,122.64,122.69, 800
02/11/2020,16:12,122.74,122.78,122.69,122.7, 2206
02/11/2020,16:13,122.68,122.68,122.63,122.63, 3000
02/11/2020,16:14,122.65,122.73,122.65,122.73, 1600
02/11/2020,16:15,122.7,122.7,122.7,122.7, 100
02/11/2020,16:16,122.73,122.73,122.67,122.67, 2908
02/11/2020,16:17,122.65,122.66,122.65,122.66, 200
02/11/2020,16:18,122.72,122.72,122.69,122.69, 200
02/11/2020,16:19,122.66,122.66,122.59,122.59, 1168
02/11/2020,16:20,122.59,122.59,122.48,122.51, 2668
02/11/2020,16:21,122.57,122.62,122.57,122.57, 1312
02/11/2020,16:22,122.58,122.63,122.58,122.63, 237
02/11/2020,16:23,122.67,122.67,122.67,122.67, 100
02/11/2020,16:24,122.66,122.66,122.58,122.58, 300
02/11/2020,16:25,122.67,122.71,122.63,122.67, 2983
02/11/2020,16:26,122.62,122.62,122.61,122.61, 427
02/11/2020,16:27,122.64,122.69,122.64,122.67, 1589
02/11/2020,16:28,122.66,122.67,122.58,122.58, 1686
02/11/2020,16:29,122.61,122.61,122.57,122.57, 520
02/11/2020,16:30,122.52,122.62,122.52,122.61, 1400
02/11/2020,16:31,122.63,122.66,122.61,122.61, 539
02/11/2020,16:32,122.6,122.69,122.6,122.69, 1101
02/11/2020,16:33,122.67,122.74,122.67,122.74, 482
02/11/2020,16:34,122.73,122.81,122.73,122.75, 1422
02/11/2020,16:35,122.76,122.81,122.76,122.81, 200
02/11/2020,16:36,122.78,122.78,122.71,122.71, 1471
02/11/2020,16:37,122.7,122.71,122.66,122.66, 800
02/11/2020,16:38,122.67,122.68,122.63,122.63, 1117
02/11/2020,16:39,122.63,122.67,122.59,122.67, 3372
02/11/2020,16:40,122.7,122.77,122.7,122.77, 3491
02/11/2020,16:41,122.78,122.82,122.78,122.82, 300
02/11/2020,16:42,122.82,122.87,122.82,122.85, 1100
02/11/2020,16:43,122.84,122.88,122.84,122.86, 955
02/11/2020,16:44,122.9,122.93,122.81,122.82, 1512
02/11/2020,16:45,122.8,122.81,122.75,122.81, 703
02/11/2020,16:46,122.81,122.81,122.81,122.81, 100
02/11/2020,16:47,122.85,122.85,122.85,122.85, 100
02/11/2020,16:48,122.83,122.86,122.82,122.83, 661
02/11/2020,16:49,122.82,122.86,122.78,122.82, 800
02/11/2020,16:50,122.81,122.82,122.81,122.82, 200
02/11/2020,16:51,122.78,122.83,122.71,122.81, 4399
02/11/2020,16:52,122.84,122.84,122.8,122.8, 500
02/11/2020,16:53,122.79,122.8,122.76,122.8, 601
02/11/2020,16:54,122.82,122.83,122.76,122.76, 3800
02/11/2020,16:55,122.75,122.75,122.68,122.69, 800
02/11/2020,16:56,122.68,122.68,122.6,122.6, 1225
02/11/2020,16:57,122.58,122.63,122.56,122.58, 3100
02/11/2020,16:58,122.59,122.59,122.5,122.51, 1319
02/11/2020,16:59,122.52,122.62,122.43,122.62, 3179
02/11/2020,17:00,122.63,122.68,122.63,122.67, 1003
02/11/2020,17:01,122.65,122.65,122.56,122.58, 1485
02/11/2020,17:02,122.56,122.61,122.47,122.6, 2551
02/11/2020,17:03,122.58,122.58,122.48,122.52, 1877
02/11/2020,17:04,122.53,122.58,122.51,122.51, 1621
