02/03/2020,15:32,72.83,72.85,72.6,72.73, 42006
02/03/2020,15:33,72.6,72.91,72.51,72.61, 9853
02/03/2020,15:34,72.59,72.8,72.51,72.66, 9435
02/03/2020,15:35,72.58,72.69,72.35,72.46, 9449
02/03/2020,15:36,72.49,72.51,72.36,72.45, 6635
02/03/2020,15:37,72.4,72.5,72.21,72.28, 7133
02/03/2020,15:38,72.28,72.35,72.13,72.16, 17552
02/03/2020,15:39,72.16,72.23,72.12,72.18, 2300
02/03/2020,15:40,72.14,72.34,72.1,72.12, 10046
02/03/2020,15:41,72.13,72.16,72.04,72.1, 3900
02/03/2020,15:42,72.13,72.29,72.1,72.18, 4545
02/03/2020,15:43,72.16,72.18,71.92,72.05, 11465
02/03/2020,15:44,72.05,72.18,71.9,72.02, 18941
02/03/2020,15:45,72.04,72.18,71.97,72.02, 9455
02/03/2020,15:46,72,72.21,72,72.18, 3709
02/03/2020,15:47,72.21,72.28,72.13,72.13, 10211
02/03/2020,15:48,72.13,72.25,72.1,72.11, 2961
02/03/2020,15:49,72.11,72.11,71.96,71.96, 5304
02/03/2020,15:50,71.98,72.02,71.92,72.02, 8901
02/03/2020,15:51,72.05,72.12,72.03,72.09, 7540
02/03/2020,15:52,72.1,72.17,72.06,72.11, 10713
02/03/2020,15:53,72.12,72.24,72.12,72.21, 4750
02/03/2020,15:54,72.23,72.39,72.18,72.31, 8424
02/03/2020,15:55,72.35,72.39,72.33,72.37, 7649
02/03/2020,15:56,72.39,72.44,72.35,72.42, 5000
02/03/2020,15:57,72.44,72.47,72.43,72.43, 4605
02/03/2020,15:58,72.42,72.51,72.41,72.43, 8106
02/03/2020,15:59,72.42,72.49,72.41,72.44, 5912
02/03/2020,16:00,72.43,72.47,72.36,72.39, 3467
02/03/2020,16:01,72.39,72.69,72.36,72.69, 10874
02/03/2020,16:02,72.7,72.76,72.62,72.71, 7130
02/03/2020,16:03,72.76,72.93,72.75,72.92, 5590
02/03/2020,16:04,72.95,72.95,72.72,72.84, 13058
02/03/2020,16:05,72.84,72.93,72.83,72.84, 7792
02/03/2020,16:06,72.8,72.8,72.51,72.69, 3391
02/03/2020,16:07,72.73,72.79,72.58,72.68, 2889
02/03/2020,16:08,72.69,72.72,72.64,72.72, 4907
02/03/2020,16:09,72.7,72.79,72.61,72.62, 14169
02/03/2020,16:10,72.63,72.64,72.58,72.58, 1296
02/03/2020,16:11,72.6,72.68,72.6,72.68, 4513
02/03/2020,16:12,72.68,72.76,72.6,72.66, 7697
02/03/2020,16:13,72.71,72.71,72.53,72.57, 4401
02/03/2020,16:14,72.63,72.63,72.57,72.59, 1534
02/03/2020,16:15,72.59,72.61,72.51,72.6, 4062
02/03/2020,16:16,72.57,72.65,72.57,72.65, 1001
02/03/2020,16:17,72.66,72.66,72.51,72.53, 3850
02/03/2020,16:18,72.55,72.62,72.55,72.62, 4728
02/03/2020,16:19,72.65,72.79,72.63,72.79, 5708
02/03/2020,16:20,72.78,72.8,72.77,72.8, 2328
02/03/2020,16:21,72.78,72.78,72.73,72.76, 2290
02/03/2020,16:22,72.75,72.75,72.64,72.64, 6687
02/03/2020,16:23,72.64,72.68,72.64,72.64, 4069
02/03/2020,16:24,72.64,72.68,72.59,72.63, 6720
02/03/2020,16:25,72.66,72.7,72.65,72.7, 3775
02/03/2020,16:26,72.7,72.78,72.68,72.78, 6866
02/03/2020,16:27,72.78,72.81,72.68,72.73, 3608
02/03/2020,16:28,72.74,72.8,72.74,72.8, 1800
02/03/2020,16:29,72.82,72.88,72.82,72.84, 3830
02/03/2020,16:30,72.88,73,72.87,72.89, 5701
02/03/2020,16:31,72.93,72.93,72.84,72.87, 3806
02/03/2020,16:32,72.84,72.87,72.83,72.83, 1699
02/03/2020,16:33,72.79,72.84,72.76,72.83, 3248
02/03/2020,16:34,72.79,72.81,72.67,72.7, 3581
02/03/2020,16:35,72.72,72.72,72.59,72.66, 3368
02/03/2020,16:36,72.65,72.65,72.6,72.6, 2185
02/03/2020,16:37,72.61,72.64,72.56,72.56, 3572
02/03/2020,16:38,72.59,72.64,72.56,72.57, 5670
02/03/2020,16:39,72.57,72.6,72.49,72.49, 4465
02/03/2020,16:40,72.52,72.54,72.48,72.5, 6321
02/03/2020,16:41,72.5,72.53,72.48,72.52, 6259
02/03/2020,16:42,72.47,72.51,72.47,72.51, 1146
02/03/2020,16:43,72.47,72.49,72.4,72.4, 4700
02/03/2020,16:44,72.4,72.48,72.4,72.43, 3413
02/03/2020,16:45,72.44,72.56,72.44,72.56, 8712
02/03/2020,16:46,72.55,72.56,72.52,72.53, 4112
02/03/2020,16:47,72.52,72.53,72.44,72.46, 9534
02/03/2020,16:48,72.45,72.47,72.39,72.41, 6854
02/03/2020,16:49,72.43,72.43,72.33,72.34, 4022
02/03/2020,16:50,72.33,72.36,72.28,72.3, 5200
02/03/2020,16:51,72.3,72.3,72.2,72.26, 2734
02/03/2020,16:52,72.24,72.32,72.24,72.28, 6371
02/03/2020,16:53,72.29,72.3,72.21,72.23, 8181
02/03/2020,16:54,72.22,72.26,72.19,72.26, 7148
02/03/2020,16:55,72.25,72.28,72.21,72.25, 12802
02/03/2020,16:56,72.25,72.26,72.18,72.2, 4484
02/03/2020,16:57,72.2,72.29,72.19,72.26, 7485
02/03/2020,16:58,72.26,72.33,72.24,72.33, 7796
02/03/2020,16:59,72.34,72.34,72.29,72.29, 2858
02/03/2020,17:00,72.3,72.31,72.21,72.25, 4301
02/03/2020,17:01,72.26,72.32,72.24,72.3, 10888
02/03/2020,17:02,72.29,72.33,72.29,72.3, 9965
02/03/2020,17:03,72.29,72.3,72.18,72.26, 7388
02/03/2020,17:04,72.25,72.25,72.09,72.12, 4596
02/03/2020,17:05,72.11,72.2,72.11,72.19, 5377
02/03/2020,17:06,72.19,72.26,72.19,72.23, 1604
02/03/2020,17:07,72.22,72.23,72.15,72.15, 1848
02/03/2020,17:08,72.15,72.16,72.11,72.14, 5205
02/03/2020,17:09,72.14,72.21,72.14,72.19, 3679
02/03/2020,17:10,72.19,72.26,72.19,72.26, 3814
02/03/2020,17:11,72.25,72.25,72.17,72.2, 3955
02/03/2020,17:12,72.21,72.21,72.09,72.12, 3309
02/03/2020,17:13,72.12,72.12,72.02,72.04, 2681
02/03/2020,17:14,72.09,72.09,71.96,72, 5470
02/03/2020,17:15,71.99,71.99,71.93,71.96, 4334
02/03/2020,17:16,71.94,72.01,71.94,71.99, 4089
02/03/2020,17:17,71.95,71.95,71.87,71.93, 11364
02/03/2020,17:18,71.94,71.94,71.84,71.84, 3936
02/03/2020,17:19,71.82,71.86,71.81,71.85, 2700
02/03/2020,17:20,71.8,71.82,71.77,71.8, 2100
02/03/2020,17:21,71.83,71.83,71.72,71.74, 4606
02/03/2020,17:22,71.76,71.79,71.7,71.72, 17745
02/03/2020,17:23,71.74,71.78,71.64,71.64, 4455
02/03/2020,17:24,71.65,71.66,71.58,71.61, 6719
02/03/2020,17:25,71.61,71.69,71.61,71.68, 5900
02/03/2020,17:26,71.71,71.71,71.65,71.7, 2965
02/03/2020,17:27,71.7,71.76,71.67,71.74, 4612
02/03/2020,17:28,71.72,71.73,71.69,71.69, 3717
02/03/2020,17:29,71.67,71.67,71.62,71.63, 4541
02/03/2020,17:30,71.64,71.64,71.57,71.59, 1400
02/03/2020,17:31,71.57,71.71,71.57,71.71, 5809
02/03/2020,17:32,71.72,71.74,71.69,71.71, 5935
02/03/2020,17:33,71.69,71.69,71.59,71.6, 4370
02/03/2020,17:34,71.6,71.65,71.59,71.63, 4540
02/03/2020,17:35,71.62,71.66,71.61,71.61, 3953
02/03/2020,17:36,71.62,71.66,71.54,71.57, 4419
02/03/2020,17:37,71.57,71.58,71.52,71.54, 7310
02/03/2020,17:38,71.56,71.61,71.53,71.53, 3667
02/03/2020,17:39,71.52,71.53,71.44,71.52, 13455
02/03/2020,17:40,71.5,71.53,71.48,71.52, 3568
02/03/2020,17:41,71.49,71.61,71.46,71.58, 6498
02/03/2020,17:42,71.58,71.59,71.48,71.48, 4419
02/03/2020,17:43,71.48,71.56,71.48,71.52, 4149
02/03/2020,17:44,71.55,71.59,71.49,71.49, 3859
02/03/2020,17:45,71.5,71.54,71.5,71.52, 3641
02/03/2020,17:46,71.53,71.6,71.53,71.56, 4489
02/03/2020,17:47,71.56,71.6,71.51,71.54, 3821
02/03/2020,17:48,71.57,71.59,71.53,71.53, 11207
02/03/2020,17:49,71.52,71.53,71.45,71.49, 3010
02/03/2020,17:50,71.48,71.48,71.38,71.41, 3404
02/03/2020,17:51,71.42,71.49,71.4,71.46, 2405
02/03/2020,17:52,71.46,71.49,71.35,71.4, 15440
02/03/2020,17:53,71.41,71.43,71.34,71.4, 7236
02/03/2020,17:54,71.4,71.43,71.37,71.41, 19863
02/03/2020,17:55,71.41,71.52,71.41,71.5, 3900
02/03/2020,17:56,71.49,71.51,71.47,71.5, 8902
02/03/2020,17:57,71.51,71.55,71.49,71.54, 3092
02/03/2020,17:58,71.52,71.67,71.52,71.66, 7306
02/03/2020,17:59,71.67,71.7,71.65,71.65, 2122
02/03/2020,18:00,71.67,71.89,71.67,71.89, 4596
02/03/2020,18:01,71.9,72.02,71.89,72, 17042
02/03/2020,18:02,71.99,72.12,71.99,72.1, 3546
02/03/2020,18:03,72.09,72.13,72.09,72.11, 4436
02/03/2020,18:04,72.16,72.25,72.15,72.21, 2489
02/03/2020,18:05,72.2,72.22,72.17,72.21, 2717
02/03/2020,18:06,72.19,72.21,72.11,72.15, 3895
02/03/2020,18:07,72.15,72.18,72.11,72.11, 2360
02/03/2020,18:08,72.11,72.11,72,72.03, 4580
02/03/2020,18:09,72.03,72.04,71.97,72.03, 1886
02/03/2020,18:10,72.05,72.05,72.02,72.05, 1217
02/03/2020,18:11,72.03,72.07,72.03,72.05, 2379
02/03/2020,18:12,72.05,72.05,71.98,71.98, 2336
02/03/2020,18:13,72,72.09,72,72.09, 1890
02/03/2020,18:14,72.09,72.09,72.05,72.05, 1200
02/03/2020,18:15,72.08,72.16,72.08,72.16, 2320
02/03/2020,18:16,72.16,72.18,72.15,72.18, 5217
02/03/2020,18:17,72.17,72.17,72.1,72.1, 1050
02/03/2020,18:18,72.1,72.13,72.1,72.1, 2500
02/03/2020,18:19,72.11,72.15,72.1,72.13, 1528
02/03/2020,18:20,72.16,72.18,72.15,72.16, 5837
02/03/2020,18:21,72.17,72.18,72.14,72.15, 2633
02/03/2020,18:22,72.16,72.19,72.15,72.16, 3662
02/03/2020,18:23,72.16,72.22,72.13,72.22, 4563
02/03/2020,18:24,72.22,72.23,72.18,72.18, 3500
02/03/2020,18:25,72.17,72.2,72.15,72.2, 3015
02/03/2020,18:26,72.21,72.21,72.16,72.16, 1500
02/03/2020,18:27,72.16,72.16,72.09,72.13, 3606
02/03/2020,18:28,72.13,72.32,72.13,72.28, 11321
02/03/2020,18:29,72.31,72.31,72.25,72.25, 2495
02/03/2020,18:30,72.25,72.31,72.25,72.29, 2138
02/03/2020,18:31,72.29,72.29,72.27,72.27, 1601
02/03/2020,18:32,72.29,72.36,72.29,72.35, 4359
02/03/2020,18:33,72.37,72.38,72.33,72.33, 1300
02/03/2020,18:34,72.32,72.32,72.27,72.27, 2814
02/03/2020,18:35,72.27,72.32,72.26,72.3, 2586
02/03/2020,18:36,72.29,72.29,72.26,72.28, 1060
02/03/2020,18:37,72.27,72.29,72.24,72.26, 2313
02/03/2020,18:38,72.25,72.35,72.24,72.35, 1000
02/03/2020,18:39,72.35,72.38,72.34,72.36, 1201
02/03/2020,18:40,72.39,72.42,72.39,72.4, 1100
02/03/2020,18:41,72.41,72.44,72.41,72.44, 801
02/03/2020,18:42,72.42,72.43,72.41,72.43, 1350
02/03/2020,18:43,72.41,72.41,72.36,72.36, 2544
02/03/2020,18:44,72.37,72.42,72.37,72.37, 3805
02/03/2020,18:45,72.38,72.42,72.38,72.42, 1801
02/03/2020,18:46,72.4,72.4,72.27,72.27, 4656
02/03/2020,18:47,72.3,72.3,72.28,72.29, 1521
02/03/2020,18:48,72.33,72.34,72.31,72.31, 931
02/03/2020,18:49,72.31,72.33,72.29,72.29, 800
02/03/2020,18:50,72.32,72.35,72.32,72.32, 1400
02/03/2020,18:51,72.33,72.41,72.3,72.4, 4529
02/03/2020,18:52,72.42,72.46,72.41,72.43, 10388
02/03/2020,18:53,72.45,72.45,72.35,72.35, 2567
02/03/2020,18:54,72.35,72.35,72.33,72.34, 3030
02/03/2020,18:55,72.35,72.43,72.35,72.43, 1100
02/03/2020,18:56,72.43,72.44,72.4,72.41, 2412
02/03/2020,18:57,72.42,72.46,72.42,72.43, 5031
02/03/2020,18:58,72.43,72.48,72.43,72.44, 3486
02/03/2020,18:59,72.44,72.52,72.44,72.52, 3658
02/03/2020,19:00,72.55,72.55,72.49,72.51, 4731
02/03/2020,19:01,72.51,72.55,72.5,72.53, 2138
02/03/2020,19:02,72.56,72.61,72.54,72.61, 3299
02/03/2020,19:03,72.62,72.64,72.61,72.63, 5003
02/03/2020,19:04,72.64,72.64,72.63,72.64, 900
02/03/2020,19:05,72.65,72.69,72.64,72.69, 3893
02/03/2020,19:06,72.68,72.68,72.62,72.64, 2617
02/03/2020,19:07,72.65,72.65,72.58,72.58, 2218
02/03/2020,19:08,72.57,72.57,72.51,72.54, 3255
02/03/2020,19:09,72.54,72.54,72.49,72.49, 1192
02/03/2020,19:10,72.5,72.51,72.49,72.5, 600
02/03/2020,19:11,72.51,72.51,72.46,72.47, 1101
02/03/2020,19:12,72.48,72.48,72.41,72.41, 1300
02/03/2020,19:13,72.41,72.42,72.29,72.29, 3272
02/03/2020,19:14,72.32,72.32,72.24,72.27, 3662
02/03/2020,19:15,72.27,72.28,72.24,72.26, 2703
02/03/2020,19:16,72.28,72.28,72.18,72.21, 3246
02/03/2020,19:17,72.23,72.25,72.18,72.18, 2004
02/03/2020,19:18,72.2,72.21,72.18,72.21, 1201
02/03/2020,19:19,72.19,72.22,72.18,72.22, 1100
02/03/2020,19:20,72.23,72.25,72.21,72.24, 3794
02/03/2020,19:21,72.23,72.26,72.21,72.25, 1600
02/03/2020,19:22,72.25,72.3,72.25,72.26, 1545
02/03/2020,19:23,72.29,72.29,72.27,72.27, 445
02/03/2020,19:24,72.3,72.31,72.26,72.27, 3995
02/03/2020,19:25,72.27,72.29,72.26,72.27, 1000
02/03/2020,19:26,72.27,72.31,72.27,72.28, 1401
02/03/2020,19:27,72.28,72.28,72.27,72.27, 1000
02/03/2020,19:28,72.27,72.27,72.26,72.27, 2000
02/03/2020,19:29,72.28,72.32,72.28,72.31, 2024
02/03/2020,19:30,72.32,72.34,72.24,72.26, 6411
02/03/2020,19:31,72.24,72.25,72.23,72.23, 1721
02/03/2020,19:32,72.25,72.26,72.22,72.23, 2613
02/03/2020,19:33,72.23,72.24,72.21,72.24, 3296
02/03/2020,19:34,72.24,72.3,72.24,72.28, 1841
02/03/2020,19:35,72.27,72.31,72.25,72.29, 2803
02/03/2020,19:36,72.31,72.31,72.25,72.25, 4501
02/03/2020,19:37,72.24,72.32,72.22,72.3, 3915
02/03/2020,19:39,72.27,72.27,72.26,72.26, 401
02/03/2020,19:40,72.27,72.3,72.24,72.24, 3492
02/03/2020,19:41,72.24,72.24,72.22,72.22, 907
02/03/2020,19:42,72.24,72.24,72.21,72.21, 849
02/03/2020,19:43,72.19,72.21,72.18,72.18, 5361
02/03/2020,19:44,72.18,72.18,72.15,72.16, 2269
02/03/2020,19:45,72.16,72.2,72.16,72.17, 2831
02/03/2020,19:46,72.19,72.19,72.18,72.18, 450
02/03/2020,19:47,72.18,72.18,72.12,72.13, 1865
02/03/2020,19:48,72.13,72.13,72.07,72.07, 1701
02/03/2020,19:49,72.09,72.09,72.04,72.04, 2025
02/03/2020,19:50,72.04,72.07,72.03,72.04, 3500
02/03/2020,19:51,72.06,72.09,72.06,72.06, 2868
02/03/2020,19:52,72.09,72.09,71.98,71.98, 3083
02/03/2020,19:53,72,72.01,71.95,72, 2900
02/03/2020,19:54,72,72.08,72,72.06, 3512
02/03/2020,19:55,72.08,72.15,72.07,72.12, 8161
02/03/2020,19:56,72.12,72.12,72.1,72.11, 2000
02/03/2020,19:57,72.12,72.13,72.09,72.11, 2620
02/03/2020,19:58,72.11,72.11,72.04,72.04, 2339
02/03/2020,19:59,72.04,72.04,72.01,72.04, 2303
02/03/2020,20:00,72.02,72.09,72.02,72.09, 2306
02/03/2020,20:01,72.09,72.12,72.07,72.07, 3017
02/03/2020,20:02,72.08,72.09,72.06,72.07, 1163
02/03/2020,20:03,72.05,72.1,72.05,72.07, 2706
02/03/2020,20:04,72.08,72.08,72.02,72.04, 2413
02/03/2020,20:05,72.05,72.11,72.05,72.08, 6686
02/03/2020,20:06,72.08,72.08,72.01,72.04, 2671
02/03/2020,20:07,72.03,72.05,72.02,72.02, 1553
02/03/2020,20:08,72.02,72.02,71.99,71.99, 2147
02/03/2020,20:09,72.01,72.02,71.98,71.98, 1402
02/03/2020,20:10,72,72.06,72,72.04, 2093
02/03/2020,20:11,72.03,72.07,72,72, 3986
02/03/2020,20:12,72.03,72.04,71.94,71.94, 1767
02/03/2020,20:13,71.95,71.95,71.85,71.86, 2391
02/03/2020,20:14,71.85,71.88,71.83,71.86, 3297
02/03/2020,20:15,71.86,71.87,71.83,71.83, 3074
02/03/2020,20:16,71.84,71.88,71.82,71.82, 3119
02/03/2020,20:17,71.82,71.85,71.82,71.82, 2253
02/03/2020,20:18,71.84,71.92,71.84,71.91, 2800
02/03/2020,20:19,71.9,71.92,71.87,71.87, 2764
02/03/2020,20:20,71.86,71.93,71.86,71.93, 3001
02/03/2020,20:21,71.93,71.95,71.92,71.92, 3436
02/03/2020,20:22,71.95,72,71.95,71.99, 1445
02/03/2020,20:23,71.99,72.02,71.98,71.98, 2551
02/03/2020,20:24,71.99,72.01,71.97,72.01, 1901
02/03/2020,20:25,72.01,72.01,71.94,71.94, 8750
02/03/2020,20:26,71.95,71.98,71.93,71.97, 2552
02/03/2020,20:27,71.95,71.97,71.94,71.94, 1721
02/03/2020,20:28,71.93,71.98,71.9,71.97, 4007
02/03/2020,20:29,71.95,71.95,71.86,71.86, 4675
02/03/2020,20:30,71.87,71.9,71.86,71.88, 4150
02/03/2020,20:31,71.87,71.94,71.85,71.93, 5742
02/03/2020,20:32,71.92,71.96,71.91,71.96, 3331
02/03/2020,20:33,71.91,71.91,71.86,71.86, 3500
02/03/2020,20:34,71.85,71.86,71.81,71.84, 3942
02/03/2020,20:35,71.83,71.83,71.77,71.78, 3900
02/03/2020,20:36,71.76,71.82,71.76,71.79, 7510
02/03/2020,20:37,71.79,71.89,71.79,71.87, 5300
02/03/2020,20:38,71.89,71.92,71.89,71.89, 3201
02/03/2020,20:39,71.89,71.89,71.86,71.86, 2425
02/03/2020,20:40,71.85,71.88,71.85,71.88, 3945
02/03/2020,20:41,71.89,71.89,71.83,71.84, 1982
02/03/2020,20:42,71.83,71.93,71.83,71.88, 3323
02/03/2020,20:43,71.87,71.92,71.87,71.89, 3202
02/03/2020,20:44,71.9,71.91,71.85,71.85, 2400
02/03/2020,20:45,71.88,71.94,71.88,71.94, 4371
02/03/2020,20:46,71.91,71.93,71.9,71.93, 3313
02/03/2020,20:47,71.92,71.93,71.91,71.91, 2514
02/03/2020,20:48,71.91,71.98,71.9,71.96, 4364
02/03/2020,20:49,71.93,71.96,71.91,71.92, 5162
02/03/2020,20:50,71.9,71.95,71.9,71.95, 2822
02/03/2020,20:51,71.95,71.96,71.91,71.95, 4362
02/03/2020,20:52,71.96,71.98,71.93,71.93, 7094
02/03/2020,20:53,71.93,71.93,71.91,71.92, 2125
02/03/2020,20:54,71.92,71.94,71.92,71.93, 4068
02/03/2020,20:55,71.92,71.94,71.85,71.87, 7201
02/03/2020,20:56,71.87,71.89,71.86,71.89, 2027
02/03/2020,20:57,71.87,71.89,71.86,71.87, 1400
02/03/2020,20:58,71.87,71.88,71.86,71.86, 1703
02/03/2020,20:59,71.86,71.92,71.86,71.89, 3097
02/03/2020,21:00,71.88,71.9,71.83,71.84, 3200
02/03/2020,21:01,71.83,71.84,71.81,71.83, 3510
02/03/2020,21:02,71.84,71.87,71.83,71.85, 1650
02/03/2020,21:03,71.86,71.86,71.81,71.82, 2224
02/03/2020,21:04,71.81,71.84,71.8,71.84, 4101
02/03/2020,21:05,71.84,71.92,71.84,71.92, 12504
02/03/2020,21:06,71.91,71.96,71.91,71.96, 2237
02/03/2020,21:07,71.95,71.95,71.91,71.93, 2472
02/03/2020,21:08,71.93,71.93,71.9,71.91, 3417
02/03/2020,21:09,71.92,71.92,71.89,71.89, 2265
02/03/2020,21:10,71.9,71.9,71.87,71.89, 2562
02/03/2020,21:11,71.88,71.93,71.88,71.92, 2771
02/03/2020,21:12,71.93,71.94,71.91,71.93, 2906
02/03/2020,21:13,71.93,71.94,71.89,71.89, 2343
02/03/2020,21:14,71.88,71.88,71.82,71.83, 4854
02/03/2020,21:15,71.83,71.84,71.81,71.84, 11557
02/03/2020,21:16,71.83,71.86,71.82,71.86, 6538
02/03/2020,21:17,71.87,71.89,71.86,71.86, 3104
02/03/2020,21:18,71.85,71.9,71.84,71.9, 2201
02/03/2020,21:19,71.89,71.89,71.85,71.85, 1981
02/03/2020,21:20,71.85,71.92,71.85,71.92, 4150
02/03/2020,21:21,71.92,71.95,71.88,71.95, 4074
02/03/2020,21:22,71.95,71.95,71.91,71.93, 7203
02/03/2020,21:23,71.93,71.96,71.91,71.95, 3630
02/03/2020,21:24,71.94,71.95,71.92,71.92, 5132
02/03/2020,21:25,71.92,71.96,71.92,71.93, 7254
02/03/2020,21:26,71.91,71.91,71.87,71.9, 5441
02/03/2020,21:27,71.9,71.9,71.8,71.8, 12810
02/03/2020,21:28,71.8,71.88,71.8,71.8, 23920
02/03/2020,21:29,71.81,71.82,71.76,71.78, 14249
02/03/2020,21:30,71.76,71.81,71.75,71.79, 18066
02/03/2020,21:31,71.8,71.81,71.67,71.67, 18808
02/03/2020,21:32,71.67,71.75,71.63,71.72, 17025
02/03/2020,21:33,71.73,71.83,71.72,71.83, 8125
02/03/2020,21:34,71.83,71.83,71.77,71.77, 3866
02/03/2020,21:35,71.76,71.82,71.74,71.82, 14470
02/03/2020,21:36,71.82,71.83,71.78,71.82, 8100
02/03/2020,21:37,71.83,71.84,71.75,71.75, 9513
02/03/2020,21:38,71.77,71.78,71.73,71.78, 12843
02/03/2020,21:39,71.77,71.81,71.73,71.81, 8993
02/03/2020,21:40,71.81,71.81,71.72,71.73, 6893
02/03/2020,21:41,71.74,71.74,71.68,71.73, 6930
02/03/2020,21:42,71.74,71.79,71.74,71.76, 8142
02/03/2020,21:43,71.77,71.77,71.73,71.76, 5569
02/03/2020,21:44,71.75,71.78,71.73,71.73, 11018
02/03/2020,21:45,71.74,71.77,71.71,71.74, 8424
02/03/2020,21:46,71.74,71.77,71.67,71.71, 14831
02/03/2020,21:47,71.72,71.72,71.65,71.66, 11234
02/03/2020,21:48,71.67,71.73,71.65,71.65, 12642
02/03/2020,21:49,71.64,71.64,71.62,71.63, 8157
02/03/2020,21:50,71.62,71.62,71.57,71.58, 16810
02/03/2020,21:51,71.57,71.57,71.5,71.5, 37486
02/03/2020,21:52,71.5,71.5,71.43,71.44, 40357
02/03/2020,21:53,71.43,71.43,71.36,71.39, 57104
02/03/2020,21:54,71.4,71.41,71.36,71.36, 53258
02/03/2020,21:55,71.35,71.42,71.34,71.42, 68857
02/03/2020,21:56,71.42,71.42,71.37,71.39, 31316
02/03/2020,21:57,71.38,71.39,71.32,71.33, 52483
02/03/2020,21:58,71.33,71.34,71.3,71.33, 73751
02/03/2020,21:59,71.32,71.33,71.27,71.28, 90420
02/03/2020,22:00,71.29,71.36,71.28,71.36, 131496
02/03/2020,22:01,71.36,71.41,71.33,71.37, 539966
02/04/2020,15:31,72.91,73.45,72.9,73.45, 44173
02/04/2020,15:32,73.59,73.66,73.45,73.53, 6378
02/04/2020,15:33,73.5,73.6,73.45,73.56, 10278
02/04/2020,15:34,73.56,73.56,73.31,73.47, 6507
02/04/2020,15:35,73.47,73.63,73.4,73.49, 6741
02/04/2020,15:36,73.32,73.58,73.3,73.5, 8573
02/04/2020,15:37,73.48,73.59,73.45,73.56, 5954
02/04/2020,15:38,73.62,73.76,73.56,73.67, 7759
02/04/2020,15:39,73.68,73.86,73.68,73.74, 8273
02/04/2020,15:40,73.71,73.75,73.62,73.7, 6825
02/04/2020,15:41,73.7,73.88,73.7,73.88, 8319
02/04/2020,15:42,73.82,73.89,73.66,73.66, 8030
02/04/2020,15:43,73.69,73.71,73.5,73.5, 16563
02/04/2020,15:44,73.53,73.53,73.35,73.35, 8489
02/04/2020,15:45,73.39,73.4,73.24,73.36, 9427
02/04/2020,15:46,73.36,73.43,73.32,73.41, 2857
02/04/2020,15:47,73.43,73.63,73.43,73.63, 9143
02/04/2020,15:48,73.59,73.59,73.51,73.55, 3421
02/04/2020,15:49,73.56,73.67,73.5,73.5, 2607
02/04/2020,15:50,73.56,73.67,73.55,73.55, 5077
02/04/2020,15:51,73.57,73.58,73.51,73.56, 3000
02/04/2020,15:52,73.54,73.61,73.45,73.48, 23909
02/04/2020,15:53,73.46,73.53,73.4,73.52, 6038
02/04/2020,15:54,73.51,73.54,73.49,73.53, 1931
02/04/2020,15:55,73.55,73.62,73.51,73.53, 5539
02/04/2020,15:56,73.57,73.58,73.53,73.56, 6405
02/04/2020,15:57,73.54,73.59,73.52,73.59, 9998
02/04/2020,15:58,73.62,73.66,73.57,73.63, 4347
02/04/2020,15:59,73.62,73.76,73.56,73.7, 7809
02/04/2020,16:00,73.69,73.82,73.67,73.76, 6708
02/04/2020,16:01,73.76,73.81,73.7,73.73, 14071
02/04/2020,16:02,73.74,73.8,73.67,73.75, 5954
02/04/2020,16:03,73.74,73.81,73.67,73.68, 19625
02/04/2020,16:04,73.7,73.9,73.68,73.9, 16621
02/04/2020,16:05,73.91,73.96,73.82,73.86, 11632
02/04/2020,16:06,73.9,73.9,73.72,73.78, 7995
02/04/2020,16:07,73.77,73.84,73.77,73.83, 5864
02/04/2020,16:08,73.84,73.92,73.8,73.87, 4986
02/04/2020,16:09,73.89,73.92,73.87,73.9, 2852
02/04/2020,16:10,73.9,73.92,73.8,73.87, 7692
02/04/2020,16:11,73.87,73.92,73.8,73.8, 11316
02/04/2020,16:12,73.8,73.81,73.69,73.73, 7883
02/04/2020,16:13,73.75,73.8,73.66,73.69, 3708
02/04/2020,16:14,73.72,73.81,73.72,73.79, 4869
02/04/2020,16:15,73.79,73.88,73.75,73.88, 4037
02/04/2020,16:16,73.87,73.87,73.75,73.79, 12639
02/04/2020,16:17,73.78,73.83,73.76,73.8, 11022
02/04/2020,16:18,73.82,73.89,73.82,73.85, 3789
02/04/2020,16:19,73.83,73.84,73.59,73.6, 9239
02/04/2020,16:20,73.59,73.69,73.57,73.66, 3435
02/04/2020,16:21,73.65,73.67,73.61,73.63, 2678
02/04/2020,16:22,73.6,73.7,73.5,73.61, 20328
02/04/2020,16:23,73.61,73.72,73.61,73.67, 3986
02/04/2020,16:24,73.64,73.71,73.63,73.71, 3663
02/04/2020,16:25,73.69,73.77,73.69,73.77, 1885
02/04/2020,16:26,73.73,73.81,73.73,73.79, 3968
02/04/2020,16:27,73.78,73.8,73.74,73.77, 3622
02/04/2020,16:28,73.74,73.88,73.74,73.87, 7748
02/04/2020,16:29,73.86,73.99,73.86,73.97, 6869
02/04/2020,16:30,73.97,74.06,73.97,74.06, 5267
02/04/2020,16:31,74.07,74.14,74.05,74.11, 4776
02/04/2020,16:32,74.11,74.24,74.09,74.24, 13363
02/04/2020,16:33,74.27,74.27,74.2,74.22, 10061
02/04/2020,16:34,74.26,74.27,74.11,74.15, 7499
02/04/2020,16:35,74.12,74.14,74.02,74.02, 5036
02/04/2020,16:36,74.01,74.05,73.98,74.05, 1102
02/04/2020,16:37,74.04,74.06,73.91,73.96, 3319
02/04/2020,16:38,73.96,74.01,73.95,74.01, 2432
02/04/2020,16:39,73.97,73.97,73.84,73.92, 3917
02/04/2020,16:40,73.95,73.95,73.77,73.77, 1644
02/04/2020,16:41,73.79,73.83,73.77,73.77, 3881
02/04/2020,16:42,73.79,73.79,73.69,73.74, 12488
02/04/2020,16:43,73.67,73.8,73.65,73.8, 33531
02/04/2020,16:44,73.78,73.79,73.74,73.79, 12500
02/04/2020,16:45,73.78,73.81,73.7,73.78, 133311
02/04/2020,16:46,73.76,73.78,73.61,73.61, 10140
02/04/2020,16:47,73.6,73.79,73.6,73.76, 13180
02/04/2020,16:48,73.75,73.77,73.7,73.72, 18986
02/04/2020,16:49,73.71,73.77,73.7,73.71, 10836
02/04/2020,16:50,73.72,73.75,73.65,73.74, 11417
02/04/2020,16:51,73.72,73.81,73.72,73.77, 15292
02/04/2020,16:52,73.77,73.85,73.74,73.85, 8356
02/04/2020,16:53,73.82,73.94,73.81,73.93, 12023
02/04/2020,16:54,73.93,74.04,73.88,74.01, 13476
02/04/2020,16:55,74.03,74.11,74.02,74.05, 5810
02/04/2020,16:56,74.06,74.1,74.02,74.1, 7737
02/04/2020,16:57,74.11,74.17,74.09,74.11, 7260
02/04/2020,16:58,74.09,74.16,74.06,74.13, 6696
02/04/2020,16:59,74.13,74.15,74.09,74.13, 3123
02/04/2020,17:00,74.15,74.34,74.15,74.33, 8482
02/04/2020,17:01,74.35,74.35,74.27,74.31, 7820
02/04/2020,17:02,74.31,74.44,74.31,74.4, 3946
02/04/2020,17:03,74.4,74.46,74.4,74.44, 7899
02/04/2020,17:04,74.44,74.49,74.4,74.42, 7218
02/04/2020,17:05,74.41,74.43,74.33,74.33, 5246
02/04/2020,17:06,74.32,74.43,74.3,74.43, 5906
02/04/2020,17:07,74.4,74.46,74.4,74.43, 6092
02/04/2020,17:08,74.43,74.46,74.41,74.45, 5160
02/04/2020,17:09,74.46,74.46,74.34,74.38, 7897
02/04/2020,17:10,74.37,74.41,74.34,74.34, 5018
02/04/2020,17:11,74.36,74.46,74.36,74.44, 3427
02/04/2020,17:12,74.44,74.55,74.44,74.53, 3591
02/04/2020,17:13,74.51,74.58,74.49,74.53, 5076
02/04/2020,17:14,74.56,74.59,74.5,74.57, 3810
02/04/2020,17:15,74.55,74.59,74.5,74.54, 2172
02/04/2020,17:16,74.54,74.55,74.49,74.49, 9590
02/04/2020,17:17,74.5,74.62,74.5,74.61, 4222
02/04/2020,17:18,74.61,74.69,74.61,74.69, 5799
02/04/2020,17:19,74.67,74.8,74.67,74.76, 11428
02/04/2020,17:20,74.76,74.76,74.67,74.67, 11286
02/04/2020,17:21,74.67,74.74,74.66,74.66, 11035
02/04/2020,17:22,74.66,74.67,74.42,74.42, 14151
02/04/2020,17:23,74.4,74.5,74.39,74.5, 11939
02/04/2020,17:24,74.54,74.54,74.42,74.42, 4438
02/04/2020,17:25,74.39,74.39,74.26,74.27, 4959
02/04/2020,17:26,74.3,74.32,74.26,74.31, 3045
02/04/2020,17:27,74.29,74.29,74.19,74.22, 7626
02/04/2020,17:28,74.21,74.21,74.16,74.2, 6596
02/04/2020,17:29,74.2,74.26,74.18,74.26, 6065
02/04/2020,17:30,74.27,74.3,74.24,74.27, 3284
02/04/2020,17:31,74.26,74.3,74.24,74.3, 2629
02/04/2020,17:32,74.3,74.32,74.25,74.28, 7807
02/04/2020,17:33,74.3,74.3,74.26,74.28, 2887
02/04/2020,17:34,74.29,74.36,74.29,74.32, 2709
02/04/2020,17:35,74.32,74.32,74.14,74.14, 4525
02/04/2020,17:36,74.15,74.2,74.1,74.17, 30722
02/04/2020,17:37,74.16,74.21,74.1,74.1, 11722
02/04/2020,17:38,74.13,74.17,74.1,74.12, 7662
02/04/2020,17:39,74.15,74.3,74.15,74.3, 14437
02/04/2020,17:40,74.33,74.37,74.32,74.37, 7169
02/04/2020,17:41,74.35,74.38,74.31,74.34, 3000
02/04/2020,17:42,74.36,74.39,74.34,74.37, 1268
02/04/2020,17:43,74.37,74.39,74.35,74.38, 2401
02/04/2020,17:44,74.37,74.39,74.37,74.39, 2048
02/04/2020,17:45,74.38,74.38,74.34,74.36, 2999
02/04/2020,17:46,74.38,74.41,74.38,74.39, 1997
02/04/2020,17:47,74.36,74.4,74.34,74.37, 3387
02/04/2020,17:48,74.35,74.44,74.34,74.42, 4464
02/04/2020,17:49,74.44,74.49,74.43,74.46, 2763
02/04/2020,17:50,74.45,74.46,74.42,74.42, 4143
02/04/2020,17:51,74.44,74.51,74.43,74.48, 5264
02/04/2020,17:52,74.48,74.48,74.39,74.39, 8967
02/04/2020,17:53,74.36,74.43,74.33,74.4, 7261
02/04/2020,17:54,74.38,74.39,74.36,74.39, 4376
02/04/2020,17:55,74.4,74.43,74.4,74.42, 1400
02/04/2020,17:56,74.43,74.43,74.34,74.34, 7078
02/04/2020,17:57,74.36,74.38,74.36,74.38, 649
02/04/2020,17:58,74.37,74.37,74.3,74.31, 6676
02/04/2020,17:59,74.3,74.3,74.26,74.27, 7176
02/04/2020,18:00,74.26,74.32,74.26,74.3, 7228
02/04/2020,18:01,74.27,74.3,74.24,74.27, 4147
02/04/2020,18:02,74.29,74.31,74.24,74.26, 3477
02/04/2020,18:03,74.25,74.25,74.17,74.23, 4767
02/04/2020,18:04,74.22,74.26,74.22,74.23, 6548
02/04/2020,18:05,74.24,74.24,74.11,74.11, 7695
02/04/2020,18:06,74.11,74.11,74.06,74.06, 4000
02/04/2020,18:07,74.09,74.1,74.05,74.08, 4123
02/04/2020,18:08,74.06,74.07,74.06,74.07, 200
02/04/2020,18:09,74.06,74.07,74.03,74.07, 2785
02/04/2020,18:10,74.08,74.17,74.08,74.16, 5101
02/04/2020,18:11,74.17,74.18,74.15,74.18, 1018
02/04/2020,18:12,74.16,74.16,74.09,74.09, 3991
02/04/2020,18:13,74.09,74.1,74.08,74.1, 1302
02/04/2020,18:14,74.08,74.09,74.06,74.09, 2584
02/04/2020,18:15,74.08,74.08,74.06,74.06, 2580
02/04/2020,18:16,74.05,74.07,74.01,74.02, 3863
02/04/2020,18:17,74.04,74.09,74.04,74.09, 2377
02/04/2020,18:18,74.08,74.09,74.04,74.04, 2795
02/04/2020,18:19,74.06,74.09,73.96,74.07, 14261
02/04/2020,18:20,74.08,74.16,74.08,74.16, 3375
02/04/2020,18:21,74.14,74.19,74.14,74.16, 4290
02/04/2020,18:22,74.16,74.16,74.01,74.04, 5439
02/04/2020,18:23,74.04,74.08,74.04,74.05, 3256
02/04/2020,18:24,74.08,74.11,74.07,74.11, 2476
02/04/2020,18:25,74.12,74.21,74.11,74.21, 4130
02/04/2020,18:26,74.19,74.25,74.19,74.24, 1199
02/04/2020,18:27,74.22,74.31,74.21,74.29, 1998
02/04/2020,18:28,74.31,74.33,74.27,74.31, 5210
02/04/2020,18:29,74.33,74.34,74.3,74.3, 4851
02/04/2020,18:30,74.3,74.37,74.29,74.37, 3404
02/04/2020,18:31,74.36,74.39,74.34,74.38, 5416
02/04/2020,18:32,74.39,74.43,74.39,74.43, 4518
02/04/2020,18:33,74.4,74.41,74.36,74.38, 6163
02/04/2020,18:34,74.4,74.41,74.38,74.39, 3617
02/04/2020,18:35,74.39,74.39,74.35,74.36, 5557
02/04/2020,18:36,74.35,74.41,74.26,74.39, 13217
02/04/2020,18:37,74.4,74.43,74.38,74.38, 4633
02/04/2020,18:38,74.36,74.37,74.32,74.37, 2155
02/04/2020,18:39,74.38,74.44,74.38,74.41, 1926
02/04/2020,18:40,74.44,74.45,74.41,74.41, 1615
02/04/2020,18:41,74.42,74.43,74.38,74.41, 4080
02/04/2020,18:42,74.39,74.39,74.25,74.25, 3655
02/04/2020,18:43,74.25,74.25,74.2,74.2, 2588
02/04/2020,18:44,74.22,74.25,74.21,74.24, 4471
02/04/2020,18:45,74.25,74.26,74.19,74.21, 3368
02/04/2020,18:46,74.19,74.19,74.12,74.13, 4350
02/04/2020,18:47,74.13,74.13,74.06,74.09, 2248
02/04/2020,18:48,74.07,74.1,74.03,74.04, 6617
02/04/2020,18:49,74.01,74.02,73.98,73.98, 6386
02/04/2020,18:50,74,74,73.95,73.96, 1983
02/04/2020,18:51,73.95,73.95,73.93,73.95, 1763
02/04/2020,18:52,73.92,73.96,73.91,73.96, 1250
02/04/2020,18:53,73.95,74.01,73.95,73.95, 2271
02/04/2020,18:54,73.98,73.98,73.93,73.97, 4261
02/04/2020,18:55,73.99,74.03,73.99,74.02, 2400
02/04/2020,18:56,74.01,74.02,73.98,74.01, 2828
02/04/2020,18:57,73.97,73.98,73.93,73.96, 2900
02/04/2020,18:58,73.96,73.97,73.9,73.9, 2505
02/04/2020,18:59,73.9,74.07,73.9,74.03, 13145
02/04/2020,19:00,74.01,74.03,74,74.02, 1800
02/04/2020,19:01,74.01,74.06,74.01,74.04, 1770
02/04/2020,19:02,74.06,74.06,74.01,74.03, 3850
02/04/2020,19:03,74.04,74.1,74.04,74.05, 2832
02/04/2020,19:04,74.07,74.09,73.97,73.98, 6032
02/04/2020,19:05,73.97,73.97,73.94,73.95, 2432
02/04/2020,19:06,73.95,73.95,73.83,73.83, 6583
02/04/2020,19:07,73.85,73.87,73.83,73.83, 4450
02/04/2020,19:08,73.82,73.82,73.77,73.78, 3300
02/04/2020,19:09,73.78,73.8,73.76,73.77, 3691
02/04/2020,19:10,73.77,73.83,73.77,73.79, 1648
02/04/2020,19:11,73.83,73.83,73.79,73.79, 1581
02/04/2020,19:12,73.79,73.82,73.79,73.79, 3519
02/04/2020,19:13,73.81,73.82,73.77,73.81, 3433
02/04/2020,19:14,73.83,73.83,73.74,73.74, 2074
02/04/2020,19:15,73.74,73.75,73.7,73.7, 3200
02/04/2020,19:16,73.71,73.72,73.64,73.64, 5399
02/04/2020,19:17,73.64,73.65,73.61,73.61, 1461
02/04/2020,19:18,73.59,73.63,73.59,73.61, 4350
02/04/2020,19:19,73.6,73.63,73.55,73.55, 3708
02/04/2020,19:20,73.56,73.57,73.51,73.51, 4666
02/04/2020,19:21,73.51,73.52,73.43,73.45, 6697
02/04/2020,19:22,73.46,73.52,73.46,73.52, 4427
02/04/2020,19:23,73.52,73.54,73.49,73.51, 5756
02/04/2020,19:24,73.51,73.56,73.49,73.52, 6517
02/04/2020,19:25,73.52,73.61,73.48,73.58, 4000
02/04/2020,19:26,73.57,73.6,73.56,73.58, 8333
02/04/2020,19:27,73.58,73.58,73.56,73.57, 2399
02/04/2020,19:28,73.58,73.61,73.57,73.61, 3681
02/04/2020,19:29,73.61,73.61,73.57,73.6, 5650
02/04/2020,19:30,73.61,73.69,73.61,73.69, 1615
02/04/2020,19:31,73.69,73.72,73.66,73.67, 3108
02/04/2020,19:32,73.66,73.74,73.66,73.7, 4542
02/04/2020,19:33,73.69,73.69,73.64,73.64, 5104
02/04/2020,19:34,73.64,73.7,73.64,73.69, 1641
02/04/2020,19:35,73.71,73.74,73.7,73.73, 1372
02/04/2020,19:36,73.72,73.74,73.67,73.68, 3793
02/04/2020,19:37,73.68,73.68,73.63,73.63, 1224
02/04/2020,19:38,73.62,73.72,73.62,73.7, 14558
02/04/2020,19:39,73.72,73.75,73.7,73.7, 1920
02/04/2020,19:40,73.71,73.75,73.66,73.67, 5932
02/04/2020,19:41,73.67,73.68,73.62,73.64, 4501
02/04/2020,19:42,73.68,73.68,73.64,73.64, 900
02/04/2020,19:43,73.68,73.69,73.65,73.65, 7129
02/04/2020,19:44,73.64,73.66,73.64,73.65, 2004
02/04/2020,19:45,73.64,73.64,73.57,73.57, 1500
02/04/2020,19:46,73.56,73.56,73.53,73.54, 2123
02/04/2020,19:47,73.55,73.61,73.54,73.61, 1605
02/04/2020,19:48,73.6,73.63,73.58,73.61, 2265
02/04/2020,19:49,73.61,73.63,73.61,73.63, 1138
02/04/2020,19:50,73.62,73.62,73.54,73.55, 5427
02/04/2020,19:51,73.54,73.58,73.54,73.54, 2686
02/04/2020,19:52,73.54,73.56,73.51,73.56, 3620
02/04/2020,19:53,73.54,73.57,73.54,73.57, 1200
02/04/2020,19:54,73.57,73.64,73.56,73.64, 1361
02/04/2020,19:55,73.62,73.64,73.6,73.61, 4231
02/04/2020,19:56,73.62,73.62,73.58,73.58, 1554
02/04/2020,19:57,73.58,73.63,73.58,73.62, 1987
02/04/2020,19:58,73.64,73.64,73.6,73.61, 1400
02/04/2020,19:59,73.62,73.64,73.61,73.64, 1905
02/04/2020,20:00,73.64,73.68,73.62,73.62, 1636
02/04/2020,20:01,73.61,73.61,73.57,73.57, 1348
02/04/2020,20:02,73.55,73.55,73.5,73.5, 900
02/04/2020,20:03,73.48,73.48,73.39,73.4, 3014
02/04/2020,20:04,73.4,73.42,73.39,73.42, 2767
02/04/2020,20:05,73.44,73.46,73.38,73.44, 1601
02/04/2020,20:06,73.45,73.48,73.45,73.45, 1700
02/04/2020,20:07,73.46,73.51,73.45,73.51, 1000
02/04/2020,20:08,73.5,73.51,73.48,73.48, 2001
02/04/2020,20:09,73.47,73.51,73.45,73.51, 1676
02/04/2020,20:10,73.5,73.63,73.5,73.63, 1156
02/04/2020,20:11,73.59,73.66,73.59,73.63, 1841
02/04/2020,20:12,73.63,73.64,73.6,73.63, 2055
02/04/2020,20:13,73.62,73.62,73.57,73.58, 2604
02/04/2020,20:14,73.57,73.65,73.57,73.61, 1878
02/04/2020,20:15,73.63,73.63,73.6,73.62, 900
02/04/2020,20:16,73.59,73.61,73.59,73.61, 824
02/04/2020,20:17,73.6,73.6,73.53,73.57, 2743
02/04/2020,20:18,73.56,73.58,73.56,73.56, 1213
02/04/2020,20:19,73.56,73.56,73.53,73.54, 2053
02/04/2020,20:20,73.53,73.54,73.51,73.54, 2440
02/04/2020,20:21,73.54,73.54,73.52,73.54, 1129
02/04/2020,20:22,73.53,73.54,73.45,73.45, 4664
02/04/2020,20:23,73.45,73.48,73.41,73.43, 5602
02/04/2020,20:24,73.41,73.41,73.37,73.4, 4219
02/04/2020,20:25,73.4,73.44,73.39,73.44, 2461
02/04/2020,20:26,73.42,73.45,73.42,73.45, 4513
02/04/2020,20:27,73.46,73.46,73.42,73.43, 3270
02/04/2020,20:28,73.43,73.46,73.41,73.43, 2617
02/04/2020,20:29,73.42,73.42,73.33,73.33, 2199
02/04/2020,20:30,73.32,73.32,73.28,73.29, 3263
02/04/2020,20:31,73.29,73.36,73.27,73.34, 3900
02/04/2020,20:32,73.33,73.33,73.23,73.27, 14580
02/04/2020,20:33,73.27,73.32,73.27,73.3, 10137
02/04/2020,20:34,73.3,73.4,73.29,73.38, 27626
02/04/2020,20:35,73.37,73.44,73.37,73.44, 3417
02/04/2020,20:36,73.44,73.5,73.43,73.47, 3803
02/04/2020,20:37,73.48,73.52,73.46,73.51, 3903
02/04/2020,20:38,73.5,73.65,73.5,73.65, 4814
02/04/2020,20:39,73.63,73.63,73.55,73.55, 5510
02/04/2020,20:40,73.54,73.54,73.5,73.51, 2400
02/04/2020,20:41,73.52,73.56,73.52,73.56, 2103
02/04/2020,20:42,73.58,73.59,73.56,73.56, 2212
02/04/2020,20:43,73.56,73.59,73.54,73.57, 2695
02/04/2020,20:44,73.56,73.59,73.54,73.58, 6349
02/04/2020,20:45,73.57,73.7,73.57,73.7, 9808
02/04/2020,20:46,73.71,73.8,73.69,73.8, 6376
02/04/2020,20:47,73.78,73.81,73.72,73.78, 9679
02/04/2020,20:48,73.77,73.77,73.75,73.75, 4247
02/04/2020,20:49,73.74,73.79,73.72,73.79, 3463
02/04/2020,20:50,73.76,73.77,73.74,73.74, 2951
02/04/2020,20:51,73.74,73.75,73.72,73.74, 3020
02/04/2020,20:52,73.74,73.76,73.73,73.75, 2600
02/04/2020,20:53,73.75,73.79,73.72,73.78, 2603
02/04/2020,20:54,73.78,73.79,73.74,73.74, 4504
02/04/2020,20:55,73.74,73.75,73.74,73.75, 720
02/04/2020,20:56,73.76,73.79,73.74,73.74, 2752
02/04/2020,20:57,73.73,73.75,73.62,73.62, 8107
02/04/2020,20:58,73.64,73.64,73.58,73.61, 6449
02/04/2020,20:59,73.61,73.64,73.59,73.62, 4415
02/04/2020,21:00,73.61,73.61,73.59,73.59, 2694
02/04/2020,21:01,73.6,73.6,73.53,73.57, 3578
02/04/2020,21:02,73.58,73.59,73.52,73.52, 3437
02/04/2020,21:03,73.52,73.54,73.51,73.52, 1511
02/04/2020,21:04,73.52,73.6,73.51,73.6, 3837
02/04/2020,21:05,73.6,73.61,73.58,73.59, 2911
02/04/2020,21:06,73.59,73.66,73.57,73.65, 4770
02/04/2020,21:07,73.63,73.63,73.54,73.55, 2190
02/04/2020,21:08,73.54,73.55,73.49,73.49, 5320
02/04/2020,21:09,73.48,73.5,73.44,73.48, 3389
02/04/2020,21:10,73.48,73.52,73.46,73.48, 3521
02/04/2020,21:11,73.45,73.52,73.44,73.51, 4478
02/04/2020,21:12,73.52,73.53,73.44,73.44, 5156
02/04/2020,21:13,73.44,73.44,73.39,73.42, 2721
02/04/2020,21:14,73.42,73.44,73.41,73.43, 2006
02/04/2020,21:15,73.43,73.46,73.43,73.46, 1251
02/04/2020,21:16,73.47,73.51,73.47,73.48, 2609
02/04/2020,21:17,73.47,73.47,73.45,73.46, 3124
02/04/2020,21:18,73.47,73.48,73.45,73.46, 4182
02/04/2020,21:19,73.45,73.48,73.44,73.46, 2950
02/04/2020,21:20,73.46,73.5,73.45,73.5, 1835
02/04/2020,21:21,73.49,73.61,73.47,73.61, 4945
02/04/2020,21:22,73.62,73.65,73.59,73.61, 4139
02/04/2020,21:23,73.61,73.63,73.59,73.63, 3792
02/04/2020,21:24,73.64,73.67,73.62,73.65, 12685
02/04/2020,21:25,73.64,73.65,73.58,73.59, 4260
02/04/2020,21:26,73.58,73.58,73.55,73.56, 1526
02/04/2020,21:27,73.55,73.57,73.55,73.56, 3797
02/04/2020,21:28,73.56,73.57,73.53,73.57, 7492
02/04/2020,21:29,73.57,73.63,73.56,73.61, 3391
02/04/2020,21:30,73.61,73.61,73.58,73.59, 4400
02/04/2020,21:31,73.61,73.61,73.53,73.53, 5365
02/04/2020,21:32,73.52,73.52,73.47,73.48, 8943
02/04/2020,21:33,73.47,73.48,73.36,73.36, 6812
02/04/2020,21:34,73.36,73.36,73.26,73.29, 8692
02/04/2020,21:35,73.28,73.31,73.21,73.29, 14063
02/04/2020,21:36,73.29,73.32,73.28,73.32, 11566
02/04/2020,21:37,73.33,73.4,73.29,73.4, 15770
02/04/2020,21:38,73.42,73.45,73.4,73.41, 13278
02/04/2020,21:39,73.4,73.43,73.38,73.39, 13361
02/04/2020,21:40,73.4,73.42,73.36,73.38, 12712
02/04/2020,21:41,73.38,73.38,73.3,73.3, 19684
02/04/2020,21:42,73.29,73.43,73.28,73.42, 26804
02/04/2020,21:43,73.42,73.45,73.39,73.39, 38938
02/04/2020,21:44,73.38,73.4,73.3,73.38, 14355
02/04/2020,21:45,73.38,73.42,73.33,73.42, 14704
02/04/2020,21:46,73.4,73.42,73.36,73.42, 18417
02/04/2020,21:47,73.41,73.42,73.36,73.36, 14945
02/04/2020,21:48,73.36,73.42,73.36,73.42, 19341
02/04/2020,21:49,73.42,73.63,73.41,73.63, 29080
02/04/2020,21:50,73.65,73.66,73.52,73.55, 32718
02/04/2020,21:51,73.56,73.61,73.49,73.6, 24545
02/04/2020,21:52,73.6,73.6,73.49,73.5, 20396
02/04/2020,21:53,73.49,73.6,73.49,73.55, 45217
02/04/2020,21:54,73.55,73.55,73.44,73.44, 28040
02/04/2020,21:55,73.43,73.45,73.41,73.44, 26096
02/04/2020,21:56,73.45,73.47,73.37,73.47, 38649
02/04/2020,21:57,73.47,73.58,73.43,73.57, 56197
02/04/2020,21:58,73.58,73.61,73.54,73.58, 62392
02/04/2020,21:59,73.59,73.59,73.55,73.57, 52382
02/04/2020,22:00,73.57,73.6,73.52,73.6, 79050
02/04/2020,22:01,73.6,73.65,73.59,73.62, 65448
02/04/2020,22:02,73.62,73.62,73.62,73.62, 523334
02/05/2020,15:31,75.5,75.51,75.45,75.49, 2149
02/05/2020,15:31,75.49,75.65,75.49,75.53, 1100
02/05/2020,15:33,75.52,75.79,75.37,75.76, 36958
02/05/2020,15:34,75.76,75.88,75.45,75.57, 19058
02/05/2020,15:35,75.58,75.6,75.39,75.6, 5588
02/05/2020,15:36,75.55,75.6,75.28,75.52, 9828
02/05/2020,15:37,75.58,75.75,75.49,75.69, 4413
02/05/2020,15:38,75.74,75.78,75.63,75.78, 15122
02/05/2020,15:39,75.68,75.94,75.67,75.93, 6413
02/05/2020,15:40,75.93,75.99,75.88,75.88, 8776
02/05/2020,15:41,75.83,75.84,75.77,75.82, 1769
02/05/2020,15:42,75.83,75.96,75.76,75.84, 3922
02/05/2020,15:43,75.85,75.85,75.66,75.66, 3808
02/05/2020,15:44,75.72,75.86,75.72,75.76, 2859
02/05/2020,15:45,75.74,75.86,75.73,75.86, 7482
02/05/2020,15:46,75.82,75.82,75.75,75.78, 4537
02/05/2020,15:47,75.8,75.94,75.8,75.91, 3907
02/05/2020,15:48,75.91,76.06,75.88,76.05, 6511
02/05/2020,15:49,76.1,76.15,76.09,76.13, 1000
02/05/2020,15:50,76.13,76.16,76.01,76.13, 7981
02/05/2020,15:51,76.11,76.21,76.1,76.13, 7034
02/05/2020,15:52,76.14,76.19,76.05,76.19, 9600
02/05/2020,15:53,76.19,76.2,76.12,76.16, 5170
02/05/2020,15:54,76.16,76.18,76.03,76.18, 3688
02/05/2020,15:55,76.2,76.2,76.1,76.2, 2850
02/05/2020,15:56,76.21,76.24,76.08,76.14, 3600
02/05/2020,15:57,76.17,76.21,76.14,76.17, 600
02/05/2020,15:58,76.13,76.16,76.04,76.04, 4179
02/05/2020,15:59,76,76.03,75.97,75.97, 8832
02/05/2020,16:00,75.95,75.97,75.91,75.97, 5986
02/05/2020,16:01,75.96,76.01,75.91,75.95, 4752
02/05/2020,16:02,75.99,76.12,75.97,76.07, 9128
02/05/2020,16:03,76.04,76.22,76.04,76.21, 2540
02/05/2020,16:04,76.22,76.41,76.2,76.41, 11683
02/05/2020,16:05,76.43,76.51,76.38,76.48, 14891
02/05/2020,16:06,76.49,76.63,76.47,76.57, 14308
02/05/2020,16:07,76.61,76.74,76.6,76.7, 4640
02/05/2020,16:08,76.71,76.71,76.59,76.64, 13124
02/05/2020,16:09,76.62,76.69,76.58,76.69, 22857
02/05/2020,16:10,76.69,76.87,76.69,76.73, 9808
02/05/2020,16:11,76.74,76.8,76.67,76.67, 7918
02/05/2020,16:12,76.67,76.69,76.6,76.62, 2730
02/05/2020,16:13,76.62,76.64,76.43,76.45, 6918
02/05/2020,16:14,76.45,76.45,76.31,76.31, 2915
02/05/2020,16:15,76.29,76.32,76.17,76.27, 4033
02/05/2020,16:16,76.31,76.32,76.24,76.27, 3352
02/05/2020,16:17,76.29,76.3,76.19,76.28, 5128
02/05/2020,16:18,76.27,76.39,76.27,76.36, 5626
02/05/2020,16:19,76.38,76.44,76.37,76.43, 2247
02/05/2020,16:20,76.44,76.45,76.42,76.42, 1400
02/05/2020,16:21,76.4,76.48,76.4,76.48, 3737
02/05/2020,16:22,76.48,76.6,76.45,76.59, 6500
02/05/2020,16:23,76.57,76.6,76.54,76.56, 5019
02/05/2020,16:24,76.58,76.61,76.57,76.61, 5474
02/05/2020,16:25,76.6,76.68,76.6,76.68, 3072
02/05/2020,16:26,76.71,76.74,76.67,76.7, 7273
02/05/2020,16:27,76.68,76.68,76.51,76.53, 5211
02/05/2020,16:28,76.53,76.53,76.4,76.4, 1330
02/05/2020,16:29,76.41,76.41,76.35,76.35, 3873
02/05/2020,16:30,76.35,76.37,76.27,76.37, 1800
02/05/2020,16:31,76.4,76.7,76.36,76.62, 6429
02/05/2020,16:32,76.62,76.67,76.45,76.53, 5371
02/05/2020,16:33,76.55,76.63,76.44,76.56, 8600
02/05/2020,16:34,76.65,76.8,76.65,76.78, 7106
02/05/2020,16:35,76.78,76.9,76.75,76.9, 7886
02/05/2020,16:36,76.93,76.93,76.86,76.9, 6995
02/05/2020,16:37,76.95,76.95,76.75,76.79, 2321
02/05/2020,16:38,76.78,76.93,76.68,76.91, 5839
02/05/2020,16:39,76.88,76.94,76.81,76.88, 4701
02/05/2020,16:40,76.86,76.87,76.8,76.83, 4110
02/05/2020,16:41,76.85,76.93,76.78,76.79, 5592
02/05/2020,16:42,76.78,76.79,76.59,76.6, 5438
02/05/2020,16:42,76.6,76.65,76.58,76.58, 3448
02/05/2020,16:44,76.54,76.66,76.5,76.62, 8314
02/05/2020,16:45,76.61,76.87,76.61,76.82, 5544
02/05/2020,16:46,76.82,76.94,76.78,76.9, 11687
02/05/2020,16:47,76.9,76.91,76.84,76.85, 11046
02/05/2020,16:48,76.86,77.02,76.83,77, 8673
02/05/2020,16:49,77,77.05,76.97,77.05, 19952
02/05/2020,16:50,77.05,77.11,77.01,77.04, 9563
02/05/2020,16:51,77.04,77.1,76.99,77.08, 6450
02/05/2020,16:52,77.06,77.07,76.84,76.85, 9071
02/05/2020,16:53,76.84,76.92,76.84,76.92, 5367
02/05/2020,16:54,76.92,77.07,76.92,77.02, 7841
02/05/2020,16:55,77.03,77.1,77.02,77.1, 11035
02/05/2020,16:56,77.09,77.09,76.99,77.03, 5812
02/05/2020,16:57,77.04,77.08,77.03,77.08, 2107
02/05/2020,16:58,77.12,77.16,77.09,77.14, 7384
02/05/2020,16:59,77.13,77.15,77.05,77.15, 2528
02/05/2020,17:00,77.13,77.13,77.03,77.04, 1841
02/05/2020,17:03,76.85,76.93,76.82,76.89, 8298
02/05/2020,17:04,76.9,76.93,76.84,76.86, 2705
02/05/2020,17:05,76.83,76.88,76.8,76.83, 2913
02/05/2020,17:06,76.8,76.82,76.74,76.81, 9045
02/05/2020,17:07,76.84,76.89,76.83,76.83, 10194
02/05/2020,17:08,76.84,76.84,76.73,76.79, 2906
02/05/2020,17:08,76.81,76.81,76.77,76.78, 1350
02/05/2020,17:10,77.06,77.06,77.03,77.04, 400
02/05/2020,17:11,77.05,77.08,77,77.07, 6996
02/05/2020,17:12,77.08,77.08,76.96,76.99, 2820
02/05/2020,17:13,77,77.09,77,77.03, 2498
02/05/2020,17:14,77.03,77.08,77.03,77.05, 2025
02/05/2020,17:17,77.15,77.17,77.15,77.17, 397
02/05/2020,17:18,77.13,77.13,77.05,77.06, 3607
02/05/2020,17:19,77.07,77.1,77.01,77.02, 5072
02/05/2020,17:20,77.01,77.03,76.99,77.01, 3741
02/05/2020,17:21,76.98,76.98,76.91,76.94, 7130
02/05/2020,17:22,76.97,77.01,76.97,77, 1100
02/05/2020,17:23,77.04,77.11,77.03,77.11, 2312
02/05/2020,17:24,77.09,77.16,77.07,77.08, 4558
02/05/2020,17:25,77.06,77.07,76.95,76.95, 7278
02/05/2020,17:26,76.94,77.04,76.94,77.02, 1700
02/05/2020,17:27,77.03,77.03,76.99,77.02, 2300
02/05/2020,17:28,77.02,77.05,76.96,77.04, 8831
02/05/2020,17:29,77.05,77.15,77.04,77.15, 3635
02/05/2020,17:30,77.16,77.19,77.12,77.16, 6561
02/05/2020,17:31,77.14,77.2,77.14,77.14, 8640
02/05/2020,17:32,77.12,77.16,77.09,77.13, 3704
02/05/2020,17:33,77.16,77.16,77.12,77.16, 2399
02/05/2020,17:34,77.15,77.18,77.15,77.15, 3672
02/05/2020,17:35,77.15,77.17,77.12,77.15, 3487
02/05/2020,17:36,77.13,77.13,77.06,77.1, 2086
02/05/2020,17:37,77.11,77.12,77.09,77.11, 600
02/05/2020,17:38,77.08,77.09,76.98,76.99, 5261
02/05/2020,17:39,77.01,77.04,77,77.04, 4117
02/05/2020,17:40,77.04,77.09,77.02,77.09, 2100
02/05/2020,17:41,77.1,77.1,77.04,77.04, 2003
02/05/2020,17:42,77.02,77.06,76.98,77.04, 5698
02/05/2020,17:43,77.06,77.08,77.02,77.02, 2677
02/05/2020,17:44,77.06,77.07,77,77, 906
02/05/2020,17:45,77,77.09,76.98,77.09, 6908
02/05/2020,17:46,77.09,77.13,77.09,77.12, 3421
02/05/2020,17:47,77.11,77.13,77.09,77.13, 1941
02/05/2020,17:48,77.14,77.18,77.13,77.13, 2802
02/05/2020,17:49,77.11,77.14,77.09,77.11, 1806
02/05/2020,17:50,77.11,77.16,77.09,77.13, 2777
02/05/2020,17:51,77.14,77.14,77.1,77.1, 2830
02/05/2020,17:52,77.1,77.1,77.01,77.01, 2300
02/05/2020,17:53,77.01,77.12,77.01,77.12, 3950
02/05/2020,17:54,77.09,77.17,77.09,77.17, 7161
02/05/2020,17:55,77.2,77.24,77.19,77.21, 1600
02/05/2020,17:56,77.22,77.32,77.22,77.32, 6785
02/05/2020,17:57,77.32,77.36,77.32,77.34, 1420
02/05/2020,17:58,77.31,77.34,77.31,77.34, 5175
02/05/2020,17:59,77.33,77.38,77.3,77.38, 4409
02/05/2020,18:00,77.36,77.39,77.34,77.38, 4574
02/05/2020,18:01,77.39,77.53,77.39,77.52, 9451
02/05/2020,18:02,77.51,77.52,77.46,77.5, 5352
02/05/2020,18:03,77.49,77.49,77.39,77.42, 4121
02/05/2020,18:04,77.44,77.47,77.36,77.39, 6799
02/05/2020,18:05,77.39,77.41,77.38,77.4, 2560
02/05/2020,18:06,77.4,77.44,77.4,77.42, 4110
02/05/2020,18:07,77.43,77.44,77.4,77.41, 4815
02/05/2020,18:08,77.43,77.43,77.36,77.43, 6094
02/05/2020,18:09,77.44,77.45,77.37,77.39, 5867
02/05/2020,18:10,77.39,77.44,77.38,77.41, 9605
02/05/2020,18:11,77.41,77.45,77.4,77.44, 3804
02/05/2020,18:12,77.45,77.49,77.44,77.46, 4117
02/05/2020,18:13,77.45,77.45,77.36,77.37, 9250
02/05/2020,18:14,77.37,77.42,77.34,77.4, 7251
02/05/2020,18:15,77.4,77.45,77.4,77.44, 11202
02/05/2020,18:16,77.44,77.48,77.42,77.45, 5317
02/05/2020,18:17,77.43,77.54,77.43,77.54, 5063
02/05/2020,18:18,77.53,77.53,77.45,77.47, 11977
02/05/2020,18:19,77.47,77.52,77.45,77.52, 5807
02/05/2020,18:20,77.52,77.54,77.5,77.52, 4502
02/05/2020,18:21,77.52,77.53,77.43,77.43, 4051
02/05/2020,18:22,77.43,77.46,77.43,77.46, 1495
02/05/2020,18:23,77.49,77.51,77.47,77.51, 2500
02/05/2020,18:24,77.51,77.53,77.46,77.49, 5456
02/05/2020,18:25,77.48,77.49,77.48,77.48, 917
02/05/2020,18:26,77.47,77.51,77.46,77.5, 745
02/05/2020,18:27,77.49,77.5,77.48,77.48, 1883
02/05/2020,18:28,77.48,77.48,77.45,77.45, 3633
02/05/2020,18:29,77.44,77.45,77.42,77.42, 2824
02/05/2020,18:30,77.46,77.46,77.4,77.4, 3495
02/05/2020,18:31,77.41,77.48,77.41,77.48, 3412
02/05/2020,18:32,77.49,77.56,77.49,77.56, 3920
02/05/2020,18:33,77.56,77.59,77.54,77.56, 3100
02/05/2020,18:34,77.58,77.62,77.58,77.59, 3603
02/05/2020,18:35,77.6,77.6,77.57,77.59, 2218
02/05/2020,18:36,77.58,77.62,77.57,77.57, 2502
02/05/2020,18:37,77.57,77.63,77.57,77.63, 1606
02/05/2020,18:38,77.63,77.69,77.63,77.69, 2290
02/05/2020,18:39,77.71,77.75,77.7,77.73, 2109
02/05/2020,18:40,77.71,77.72,77.69,77.7, 9022
02/05/2020,18:41,77.73,77.78,77.72,77.77, 5090
02/05/2020,18:42,77.77,77.78,77.73,77.73, 3402
02/05/2020,18:43,77.75,77.76,77.69,77.7, 5957
02/05/2020,18:44,77.71,77.71,77.68,77.68, 400
02/05/2020,18:45,77.69,77.72,77.68,77.72, 2903
02/05/2020,18:46,77.76,77.78,77.75,77.76, 1639
02/05/2020,18:47,77.74,77.75,77.7,77.75, 4700
02/05/2020,18:48,77.74,77.74,77.7,77.71, 1976
02/05/2020,18:49,77.72,77.77,77.69,77.77, 2001
02/05/2020,18:50,77.77,77.81,77.77,77.79, 4644
02/05/2020,18:51,77.77,77.85,77.77,77.78, 3153
02/05/2020,18:52,77.78,77.8,77.75,77.8, 3683
02/05/2020,18:53,77.8,77.85,77.79,77.85, 2872
02/05/2020,18:54,77.86,77.9,77.84,77.9, 4615
02/05/2020,18:55,77.89,77.93,77.87,77.93, 4187
02/05/2020,18:56,77.92,77.97,77.88,77.97, 8183
02/05/2020,18:57,77.94,77.98,77.88,77.88, 3976
02/05/2020,18:58,77.86,77.91,77.84,77.87, 3529
02/05/2020,18:59,77.86,77.9,77.85,77.9, 2302
02/05/2020,19:00,77.91,77.94,77.9,77.92, 2903
02/05/2020,19:01,77.92,77.93,77.88,77.89, 3025
02/05/2020,19:02,77.87,77.91,77.87,77.9, 3100
02/05/2020,19:03,77.88,77.88,77.82,77.82, 2924
02/05/2020,19:04,77.82,77.83,77.74,77.76, 2300
02/05/2020,19:05,77.75,77.75,77.71,77.71, 2001
02/05/2020,19:06,77.7,77.76,77.7,77.74, 2857
02/05/2020,19:07,77.73,77.74,77.65,77.65, 3040
02/05/2020,19:08,77.65,77.67,77.62,77.62, 2359
02/05/2020,19:09,77.63,77.63,77.61,77.62, 1100
02/05/2020,19:10,77.64,77.69,77.64,77.66, 4375
02/05/2020,19:11,77.65,77.74,77.65,77.71, 2782
02/05/2020,19:12,77.71,77.71,77.68,77.7, 2813
02/05/2020,19:13,77.71,77.71,77.65,77.67, 4195
02/05/2020,19:14,77.67,77.68,77.65,77.68, 2301
02/05/2020,19:15,77.67,77.67,77.64,77.66, 2639
02/05/2020,19:16,77.64,77.7,77.64,77.67, 4062
02/05/2020,19:17,77.67,77.69,77.63,77.64, 1500
02/05/2020,19:18,77.63,77.69,77.61,77.67, 2859
02/05/2020,19:19,77.67,77.67,77.66,77.67, 2064
02/05/2020,19:20,77.66,77.67,77.63,77.67, 2652
02/05/2020,19:21,77.67,77.7,77.67,77.69, 2300
02/05/2020,19:22,77.68,77.71,77.66,77.7, 4201
02/05/2020,19:23,77.7,77.72,77.66,77.72, 5313
02/05/2020,19:24,77.73,77.73,77.66,77.68, 8347
02/05/2020,19:25,77.68,77.69,77.67,77.67, 2315
02/05/2020,19:26,77.67,77.71,77.65,77.71, 2855
02/05/2020,19:27,77.72,77.75,77.71,77.71, 2495
02/05/2020,19:28,77.72,77.72,77.67,77.67, 2480
02/05/2020,19:29,77.67,77.7,77.63,77.64, 2123
02/05/2020,19:30,77.65,77.65,77.57,77.58, 2327
02/05/2020,19:31,77.58,77.58,77.55,77.56, 2369
02/05/2020,19:32,77.55,77.56,77.53,77.54, 3651
02/05/2020,19:33,77.53,77.61,77.53,77.61, 2733
02/05/2020,19:34,77.6,77.65,77.6,77.64, 1658
02/05/2020,19:35,77.64,77.64,77.57,77.6, 4852
02/05/2020,19:36,77.59,77.59,77.54,77.57, 3078
02/05/2020,19:37,77.56,77.56,77.52,77.53, 2548
02/05/2020,19:38,77.53,77.56,77.49,77.56, 2614
02/05/2020,19:39,77.56,77.59,77.54,77.56, 2247
02/05/2020,19:40,77.56,77.56,77.49,77.49, 1650
02/05/2020,19:41,77.5,77.53,77.49,77.52, 1366
02/05/2020,19:42,77.53,77.56,77.53,77.56, 1650
02/05/2020,19:43,77.59,77.63,77.58,77.63, 3600
02/05/2020,19:44,77.64,77.66,77.63,77.64, 1305
02/05/2020,19:45,77.64,77.71,77.64,77.7, 2939
02/05/2020,19:46,77.7,77.7,77.66,77.69, 1946
02/05/2020,19:47,77.7,77.75,77.69,77.75, 1000
02/05/2020,19:48,77.74,77.75,77.68,77.68, 2657
02/05/2020,19:49,77.68,77.68,77.65,77.65, 3102
02/05/2020,19:50,77.63,77.65,77.6,77.6, 2778
02/05/2020,19:51,77.59,77.67,77.59,77.66, 6336
02/05/2020,19:52,77.67,77.72,77.66,77.71, 2030
02/05/2020,19:53,77.68,77.71,77.68,77.69, 1900
02/05/2020,19:54,77.69,77.69,77.65,77.65, 3434
02/05/2020,19:55,77.64,77.64,77.62,77.64, 1693
02/05/2020,19:56,77.62,77.62,77.55,77.58, 3910
02/05/2020,19:57,77.58,77.61,77.57,77.6, 600
02/05/2020,19:58,77.62,77.67,77.62,77.66, 3006
02/05/2020,19:59,77.67,77.67,77.63,77.63, 3871
02/05/2020,20:00,77.6,77.62,77.51,77.51, 2612
02/05/2020,20:01,77.51,77.51,77.44,77.47, 11213
02/05/2020,20:02,77.46,77.5,77.45,77.45, 4010
02/05/2020,20:03,77.45,77.45,77.36,77.36, 7664
02/05/2020,20:04,77.34,77.35,77.03,77.1, 47379
02/05/2020,20:05,77.09,77.15,77.09,77.11, 2099
02/05/2020,20:06,77.12,77.12,77.05,77.08, 11415
02/05/2020,20:07,77.08,77.21,77.08,77.21, 2005
02/05/2020,20:08,77.19,77.23,77.16,77.17, 3714
02/05/2020,20:09,77.18,77.2,77.09,77.1, 4770
02/05/2020,20:10,77.08,77.12,77.07,77.09, 3775
02/05/2020,20:11,77.1,77.14,77.07,77.07, 4900
02/05/2020,20:12,77.09,77.12,77.08,77.1, 2003
02/05/2020,20:13,77.08,77.13,77.07,77.13, 3627
02/05/2020,20:14,77.07,77.07,77.01,77.04, 4902
02/05/2020,20:15,77.06,77.07,77.02,77.07, 929
02/05/2020,20:16,77.07,77.09,77.05,77.06, 4897
02/05/2020,20:17,77.06,77.16,77.05,77.15, 1494
02/05/2020,20:18,77.17,77.21,77.17,77.21, 2020
02/05/2020,20:19,77.22,77.24,77.16,77.16, 7476
02/05/2020,20:20,77.18,77.19,77.15,77.16, 4856
02/05/2020,20:21,77.15,77.17,77.14,77.14, 1899
02/05/2020,20:22,77.16,77.19,77.11,77.11, 4564
02/05/2020,20:23,77.09,77.18,77.09,77.18, 2212
02/05/2020,20:24,77.14,77.16,77.13,77.13, 500
02/05/2020,20:25,77.14,77.19,77.14,77.19, 1751
02/05/2020,20:26,77.18,77.21,77.15,77.17, 2494
02/05/2020,20:27,77.15,77.17,77.13,77.13, 1684
02/05/2020,20:28,77.11,77.14,77.07,77.1, 5044
02/05/2020,20:29,77.05,77.1,77.03,77.09, 4658
02/05/2020,20:30,77.08,77.16,77.08,77.15, 2165
02/05/2020,20:31,77.14,77.17,77.12,77.12, 2733
02/05/2020,20:32,77.12,77.13,77.09,77.13, 2131
02/05/2020,20:33,77.12,77.16,77.12,77.12, 6382
02/05/2020,20:34,77.12,77.12,77.07,77.1, 3171
02/05/2020,20:35,77.1,77.12,76.85,76.89, 15284
02/05/2020,20:36,76.9,76.95,76.86,76.89, 5727
02/05/2020,20:37,76.88,76.89,76.83,76.87, 1527
02/05/2020,20:38,76.89,76.89,76.77,76.79, 15876
02/05/2020,20:39,76.8,76.81,76.76,76.78, 2947
02/05/2020,20:40,76.76,76.76,76.67,76.72, 2231
02/05/2020,20:41,76.72,76.72,76.69,76.72, 1140
02/05/2020,20:42,76.74,76.78,76.73,76.78, 3204
02/05/2020,20:43,76.78,76.84,76.77,76.83, 3613
02/05/2020,20:44,76.85,76.86,76.8,76.84, 3678
02/05/2020,20:45,76.84,76.84,76.79,76.79, 4704
02/05/2020,20:46,76.79,76.85,76.77,76.84, 1997
02/05/2020,20:47,76.83,76.83,76.79,76.79, 2398
02/05/2020,20:48,76.8,76.82,76.79,76.8, 2200
02/05/2020,20:49,76.81,76.9,76.79,76.87, 4633
02/05/2020,20:50,76.87,76.92,76.85,76.91, 1503
02/05/2020,20:51,76.9,76.93,76.88,76.93, 5660
02/05/2020,20:52,76.94,76.96,76.92,76.96, 2737
02/05/2020,20:53,76.94,76.97,76.94,76.95, 3157
02/05/2020,20:54,76.96,77.04,76.96,77.03, 3880
02/05/2020,20:55,77.01,77.04,76.97,76.99, 4900
02/05/2020,20:56,77,77,76.97,76.97, 3952
02/05/2020,20:57,76.96,77.01,76.95,77, 5652
02/05/2020,20:58,77,77.03,76.99,77.01, 2300
02/05/2020,20:59,76.99,77.05,76.99,77.01, 4412
02/05/2020,21:00,77,77,76.95,76.98, 3665
02/05/2020,21:01,76.99,77.01,76.97,77, 2081
02/05/2020,21:02,77.02,77.13,77,77.13, 5143
02/05/2020,21:03,77.12,77.17,77.05,77.08, 4414
02/05/2020,21:04,77.07,77.07,77.05,77.05, 901
02/05/2020,21:05,77.03,77.03,76.98,76.99, 3456
02/05/2020,21:06,76.98,77.02,76.95,77, 3120
02/05/2020,21:07,77.01,77.01,76.96,76.98, 3709
02/05/2020,21:08,76.99,77.03,76.97,77.02, 5753
02/05/2020,21:09,77.03,77.12,77.01,77.11, 8095
02/05/2020,21:10,77.1,77.11,77.04,77.09, 5659
02/05/2020,21:11,77.07,77.09,77.04,77.08, 1926
02/05/2020,21:12,77.09,77.13,77.09,77.09, 4357
02/05/2020,21:13,77.09,77.11,77.07,77.07, 1907
02/05/2020,21:14,77.06,77.07,77.02,77.03, 2295
02/05/2020,21:15,77.04,77.06,77.02,77.02, 3440
02/05/2020,21:16,77.01,77.11,77.01,77.11, 2580
02/05/2020,21:17,77.1,77.12,77.08,77.11, 5659
02/05/2020,21:18,77.12,77.25,77.11,77.25, 22062
02/05/2020,21:19,77.27,77.27,77.18,77.18, 3284
02/05/2020,21:20,77.18,77.21,77.18,77.19, 2857
02/05/2020,21:21,77.18,77.24,77.15,77.15, 11292
02/05/2020,21:22,77.14,77.14,77.12,77.13, 2599
02/05/2020,21:23,77.13,77.15,77.1,77.11, 9520
02/05/2020,21:24,77.12,77.15,77.07,77.15, 3472
02/05/2020,21:25,77.17,77.2,77.16,77.16, 1628
02/05/2020,21:26,77.14,77.21,77.11,77.11, 19674
02/05/2020,21:27,77.1,77.1,77.01,77.01, 6350
02/05/2020,21:28,77.01,77.01,76.96,76.97, 5076
02/05/2020,21:29,76.99,77.02,76.99,77.01, 2165
02/05/2020,21:30,77,77.04,76.98,77.04, 5118
02/05/2020,21:31,77.03,77.04,76.97,77.03, 6792
02/05/2020,21:32,77.01,77.04,76.99,76.99, 4927
02/05/2020,21:33,77,77.03,76.96,76.98, 4944
02/05/2020,21:34,76.96,77.04,76.96,76.99, 9301
02/05/2020,21:35,76.98,76.99,76.93,76.96, 10852
02/05/2020,21:36,76.96,77.04,76.95,76.99, 7971
02/05/2020,21:37,76.99,77.05,76.99,77.02, 4671
02/05/2020,21:38,77.03,77.03,76.88,76.88, 8663
02/05/2020,21:39,76.89,76.93,76.87,76.92, 10281
02/05/2020,21:40,76.92,76.95,76.92,76.94, 4747
02/05/2020,21:41,76.93,76.93,76.88,76.93, 5351
02/05/2020,21:42,76.94,77.04,76.94,77.02, 6834
02/05/2020,21:43,77.03,77.14,77.03,77.14, 7971
02/05/2020,21:44,77.13,77.14,77.07,77.07, 7641
02/05/2020,21:45,77.08,77.1,77.06,77.1, 5334
02/05/2020,21:46,77.09,77.13,77.04,77.04, 9391
02/05/2020,21:47,77.03,77.17,77.03,77.17, 10683
02/05/2020,21:48,77.17,77.2,77.14,77.2, 9988
02/05/2020,21:49,77.18,77.2,77.14,77.2, 8507
02/05/2020,21:50,77.21,77.23,77.15,77.22, 8509
02/05/2020,21:51,77.22,77.22,77.15,77.15, 16804
02/05/2020,21:52,77.15,77.16,77.07,77.07, 11061
02/05/2020,21:53,77.08,77.11,77.06,77.1, 13236
02/05/2020,21:54,77.1,77.1,77.02,77.06, 13754
02/05/2020,21:55,77.05,77.07,77.01,77.05, 19255
02/05/2020,21:56,77.06,77.14,76.97,76.99, 34498
02/05/2020,21:57,76.99,77.06,76.95,77.02, 20390
02/05/2020,21:58,77.02,77.04,76.98,77.01, 32250
02/05/2020,21:59,77.01,77.04,76.98,77.02, 28457
02/05/2020,22:00,77.02,77.04,76.95,76.95, 35909
02/05/2020,22:01,76.96,77.08,76.94,77.05, 34200
02/05/2020,22:01,77.05,77.05,77.05,77.05, 451819
02/06/2020,15:31,77.4,77.4,77.16,77.27, 35890
02/06/2020,15:32,77.21,77.34,76.98,76.98, 2647
02/06/2020,15:33,77.03,77.31,77.03,77.12, 12107
02/06/2020,15:34,77.12,77.21,76.98,76.98, 2050
02/06/2020,15:35,76.94,77.02,76.65,76.72, 2500
02/06/2020,15:36,76.72,76.76,76.54,76.64, 7421
02/06/2020,15:37,76.73,76.77,76.31,76.36, 10129
02/06/2020,15:38,76.29,76.35,75.84,75.84, 32263
02/06/2020,15:39,75.79,75.96,75.7,75.74, 21050
02/06/2020,15:40,75.75,75.75,75.58,75.58, 4764
02/06/2020,15:41,75.59,75.7,75.37,75.37, 9373
02/06/2020,15:42,75.41,75.6,75.37,75.51, 13375
02/06/2020,15:43,75.5,75.57,75.22,75.41, 21588
02/06/2020,15:44,75.35,75.53,75.27,75.43, 6645
02/06/2020,15:45,75.47,75.6,75.43,75.51, 10169
02/06/2020,15:46,75.51,75.8,75.48,75.8, 8099
02/06/2020,15:47,75.74,75.77,75.55,75.64, 16510
02/06/2020,15:48,75.67,75.78,75.63,75.63, 3580
02/06/2020,15:49,75.75,75.77,75.63,75.72, 4900
02/06/2020,15:50,75.73,75.83,75.65,75.65, 1989
02/06/2020,15:51,75.65,75.67,75.44,75.46, 2853
02/06/2020,15:52,75.4,75.49,75.38,75.44, 2116
02/06/2020,15:53,75.44,75.62,75.44,75.51, 4775
02/06/2020,15:54,75.51,75.51,75.44,75.5, 1700
02/06/2020,15:55,75.45,75.69,75.45,75.64, 10322
02/06/2020,15:56,75.64,75.7,75.56,75.6, 5309
02/06/2020,15:57,75.57,75.75,75.53,75.62, 9681
02/06/2020,15:58,75.65,75.76,75.65,75.69, 1300
02/06/2020,15:59,75.78,75.91,75.73,75.89, 6417
02/06/2020,16:00,75.91,75.93,75.86,75.93, 5400
02/06/2020,16:01,75.93,75.95,75.88,75.92, 1900
02/06/2020,16:02,75.9,76.15,75.89,76.15, 20687
02/06/2020,16:03,76.15,76.34,76.13,76.24, 3713
02/06/2020,16:04,76.27,76.33,76.22,76.22, 6428
02/06/2020,16:05,76.23,76.3,76.23,76.3, 1206
02/06/2020,16:06,76.29,76.45,76.29,76.35, 4567
02/06/2020,16:07,76.38,76.49,76.32,76.34, 7990
02/06/2020,16:08,76.33,76.33,76.19,76.28, 3551
02/06/2020,16:09,76.31,76.34,76.25,76.26, 1996
02/06/2020,16:10,76.28,76.38,76.23,76.23, 9704
02/06/2020,16:11,76.27,76.28,76.18,76.24, 3316
02/06/2020,16:12,76.2,76.25,76.2,76.25, 902
02/06/2020,16:13,76.18,76.18,76.08,76.15, 2300
02/06/2020,16:14,76.14,76.22,76.07,76.22, 5787
02/06/2020,16:15,76.16,76.18,76.06,76.06, 5113
02/06/2020,16:16,76.03,76.12,76,76.06, 3266
02/06/2020,16:17,75.96,75.97,75.89,75.9, 7538
02/06/2020,16:18,75.89,75.92,75.87,75.9, 10379
02/06/2020,16:19,75.9,75.96,75.89,75.96, 1820
02/06/2020,16:20,75.98,75.98,75.87,75.93, 2495
02/06/2020,16:21,75.91,76,75.87,76, 2092
02/06/2020,16:22,76,76,75.83,75.86, 3844
02/06/2020,16:23,75.8,75.93,75.76,75.8, 4027
02/06/2020,16:24,75.75,75.8,75.66,75.69, 2219
02/06/2020,16:25,75.69,75.76,75.69,75.75, 2203
02/06/2020,16:26,75.77,75.8,75.73,75.8, 1610
02/06/2020,16:27,75.79,76.02,75.78,75.98, 5506
02/06/2020,16:28,75.98,76.04,75.93,75.96, 5158
02/06/2020,16:29,75.98,76.07,75.98,76.07, 3473
02/06/2020,16:30,76.03,76.12,76.01,76.09, 19536
02/06/2020,16:31,76.09,76.12,76,76, 3094
02/06/2020,16:32,76,76.11,76,76.1, 4200
02/06/2020,16:33,76.15,76.2,76.11,76.13, 12573
02/06/2020,16:34,76.1,76.27,76.1,76.27, 7891
02/06/2020,16:35,76.26,76.3,76.24,76.26, 3440
02/06/2020,16:36,76.21,76.22,76.15,76.19, 3803
02/06/2020,16:37,76.27,76.34,76.27,76.3, 2900
02/06/2020,16:38,76.27,76.32,76.26,76.27, 1650
02/06/2020,16:39,76.26,76.26,76.21,76.22, 1300
02/06/2020,16:40,76.21,76.25,76.19,76.25, 2450
02/06/2020,16:41,76.27,76.36,76.25,76.33, 1556
02/06/2020,16:42,76.33,76.34,76.27,76.27, 8827
02/06/2020,16:43,76.26,76.31,76.17,76.17, 3462
02/06/2020,16:44,76.16,76.21,76.13,76.16, 2380
02/06/2020,16:45,76.08,76.13,76.05,76.05, 1286
02/06/2020,16:46,76.04,76.05,76.03,76.03, 1200
02/06/2020,16:47,76.07,76.21,76.06,76.21, 1900
02/06/2020,16:48,76.21,76.27,76.19,76.27, 2094
02/06/2020,16:49,76.25,76.25,76.19,76.19, 717
02/06/2020,16:50,76.17,76.17,76.13,76.14, 1800
02/06/2020,16:51,76.17,76.19,76.1,76.11, 1200
02/06/2020,16:52,76.1,76.17,76.08,76.1, 2328
02/06/2020,16:53,76.15,76.17,75.98,76, 3260
02/06/2020,16:54,76.01,76.03,75.99,75.99, 3215
02/06/2020,16:55,75.99,75.99,75.88,75.88, 1304
02/06/2020,16:56,75.85,75.93,75.84,75.9, 1374
02/06/2020,16:57,75.89,75.91,75.85,75.86, 1400
02/06/2020,16:58,75.86,75.92,75.86,75.92, 1224
02/06/2020,16:59,75.89,75.92,75.87,75.87, 863
02/06/2020,17:00,75.87,75.99,75.86,75.99, 2807
02/06/2020,17:01,75.98,76.01,75.93,75.95, 2100
02/06/2020,17:02,75.94,75.96,75.92,75.96, 1200
02/06/2020,17:03,75.99,76.06,75.99,76.06, 1100
02/06/2020,17:04,76.09,76.1,76.09,76.1, 200
02/06/2020,17:05,76.13,76.13,76.06,76.06, 1256
02/06/2020,17:06,76.04,76.09,76.04,76.04, 1673
02/06/2020,17:07,76.03,76.1,76.03,76.09, 1400
02/06/2020,17:08,76.07,76.09,76.02,76.02, 1730
02/06/2020,17:09,76.01,76.18,76.01,76.13, 2310
02/06/2020,17:10,76.18,76.25,76.16,76.21, 1601
02/06/2020,17:11,76.18,76.24,76.18,76.23, 4851
02/06/2020,17:12,76.21,76.22,76.15,76.15, 6896
02/06/2020,17:13,76.18,76.18,76.04,76.08, 3600
02/06/2020,17:14,76.08,76.08,76.02,76.03, 3012
02/06/2020,17:15,76.02,76.18,76.02,76.18, 2000
02/06/2020,17:16,76.17,76.23,76.15,76.15, 1500
02/06/2020,17:17,76.18,76.19,76.16,76.17, 3684
02/06/2020,17:18,76.17,76.19,76.15,76.15, 1838
02/06/2020,17:19,76.16,76.22,76.14,76.19, 6378
02/06/2020,17:20,76.19,76.27,76.18,76.27, 4400
02/06/2020,17:21,76.28,76.37,76.27,76.37, 10859
02/06/2020,17:22,76.35,76.38,76.33,76.34, 5559
02/06/2020,17:23,76.32,76.38,76.32,76.34, 4374
02/06/2020,17:24,76.34,76.37,76.32,76.35, 6819
02/06/2020,17:25,76.37,76.43,76.36,76.43, 19554
02/06/2020,17:26,76.44,76.49,76.3,76.36, 6565
02/06/2020,17:27,76.34,76.37,76.24,76.24, 2130
02/06/2020,17:28,76.2,76.23,76.18,76.18, 4565
02/06/2020,17:29,76.15,76.23,76.11,76.2, 3428
02/06/2020,17:30,76.19,76.19,76.09,76.09, 1667
02/06/2020,17:31,76.1,76.12,76.06,76.11, 3348
02/06/2020,17:32,76.13,76.17,76.1,76.1, 2878
02/06/2020,17:33,76.13,76.13,76.04,76.13, 5662
02/06/2020,17:34,76.13,76.13,76.04,76.04, 4004
02/06/2020,17:35,76.03,76.03,75.94,75.97, 3064
02/06/2020,17:36,76,76.06,75.96,75.96, 3187
02/06/2020,17:37,75.98,76.03,75.98,76, 1432
02/06/2020,17:38,76.02,76.02,75.98,76, 1252
02/06/2020,17:39,75.99,76.07,75.98,76.06, 1850
02/06/2020,17:40,76.07,76.17,76.06,76.16, 2887
02/06/2020,17:41,76.15,76.17,76.11,76.14, 3017
02/06/2020,17:42,76.15,76.25,76.15,76.22, 7693
02/06/2020,17:43,76.2,76.23,76.16,76.19, 8207
02/06/2020,17:44,76.19,76.25,76.19,76.2, 3829
02/06/2020,17:45,76.16,76.21,76.16,76.16, 921
02/06/2020,17:46,76.16,76.16,76.13,76.13, 1200
02/06/2020,17:47,76.12,76.13,76.11,76.12, 2673
02/06/2020,17:48,76.14,76.14,76.08,76.09, 1499
02/06/2020,17:50,76.09,76.09,76.02,76.06, 1510
02/06/2020,17:51,76.04,76.06,76.03,76.06, 500
02/06/2020,17:52,76.03,76.03,76.02,76.02, 600
02/06/2020,17:53,75.99,76.02,75.97,75.97, 3402
02/06/2020,17:54,75.97,75.97,75.94,75.94, 1103
02/06/2020,17:55,75.95,76.02,75.95,76.02, 2518
02/06/2020,17:56,76.01,76.04,76.01,76.02, 1388
02/06/2020,17:57,76.01,76.02,75.99,76, 3041
02/06/2020,17:58,76,76.02,75.92,75.92, 3350
02/06/2020,17:59,75.94,75.97,75.92,75.92, 901
02/06/2020,18:00,75.94,76.04,75.93,76.01, 7573
02/06/2020,18:01,76.01,76.07,76,76.05, 5804
02/06/2020,18:02,76.05,76.05,76.01,76.02, 14406
02/06/2020,18:03,76.02,76.02,75.97,75.97, 2335
02/06/2020,18:04,75.97,75.97,75.93,75.93, 1500
02/06/2020,18:05,75.95,75.95,75.93,75.93, 400
02/06/2020,18:06,75.96,76.01,75.96,75.99, 1434
02/06/2020,18:07,75.99,76,75.99,75.99, 683
02/06/2020,18:08,75.98,75.98,75.95,75.96, 1600
02/06/2020,18:09,76,76.04,76,76.01, 3301
02/06/2020,18:10,76.02,76.04,76,76, 2550
02/06/2020,18:11,75.99,76.02,75.97,76.01, 1400
02/06/2020,18:12,75.99,76.01,75.97,75.97, 1603
02/06/2020,18:14,76.02,76.04,76.02,76.02, 1241
02/06/2020,18:15,76.02,76.04,76,76, 2697
02/06/2020,18:16,76,76,75.96,75.99, 419
02/06/2020,18:17,75.98,76.02,75.98,75.99, 2365
02/06/2020,18:18,75.98,75.98,75.97,75.98, 300
02/06/2020,18:19,75.97,75.99,75.96,75.99, 1469
02/06/2020,18:20,75.99,76.05,75.98,76, 1653
02/06/2020,18:20,75.99,75.99,75.98,75.98, 230
02/06/2020,18:22,75.99,75.99,75.94,75.94, 500
02/06/2020,18:22,75.93,75.93,75.91,75.91, 555
02/06/2020,18:24,75.91,75.91,75.85,75.85, 550
02/06/2020,18:25,75.87,75.89,75.85,75.89, 730
02/06/2020,18:26,75.87,75.89,75.83,75.87, 3328
02/06/2020,18:27,75.86,75.87,75.86,75.87, 200
02/06/2020,18:28,75.88,75.88,75.85,75.85, 4450
02/06/2020,18:29,75.83,75.83,75.8,75.81, 922
02/06/2020,18:30,75.81,75.86,75.81,75.86, 2692
02/06/2020,18:31,75.88,75.97,75.88,75.94, 3068
02/06/2020,18:32,75.93,75.97,75.92,75.96, 2283
02/06/2020,18:32,75.93,75.93,75.88,75.88, 716
02/06/2020,18:34,75.88,75.91,75.87,75.89, 1925
02/06/2020,18:35,75.87,75.87,75.83,75.86, 1356
02/06/2020,18:36,75.86,75.86,75.83,75.83, 577
02/06/2020,18:36,75.81,75.81,75.79,75.79, 650
02/06/2020,18:38,75.81,75.83,75.77,75.83, 1936
02/06/2020,18:39,75.83,75.83,75.8,75.8, 825
02/06/2020,18:40,75.81,75.81,75.75,75.76, 2397
02/06/2020,18:41,75.74,75.77,75.73,75.77, 1200
02/06/2020,18:41,75.78,75.79,75.76,75.76, 564
02/06/2020,18:43,75.79,75.79,75.77,75.77, 400
02/06/2020,18:44,75.78,75.81,75.78,75.81, 1352
02/06/2020,18:45,75.81,75.81,75.78,75.78, 904
02/06/2020,18:46,75.8,75.8,75.77,75.77, 351
02/06/2020,18:47,75.76,75.76,75.7,75.7, 1441
02/06/2020,18:48,75.7,75.7,75.61,75.64, 4881
02/06/2020,18:49,75.62,75.65,75.62,75.63, 1000
02/06/2020,18:50,75.64,75.64,75.58,75.59, 4838
02/06/2020,18:51,75.58,75.65,75.58,75.61, 2128
02/06/2020,18:52,75.63,75.63,75.6,75.6, 1077
02/06/2020,18:53,75.61,75.62,75.61,75.62, 400
02/06/2020,18:54,75.64,75.69,75.64,75.68, 1961
02/06/2020,18:54,75.69,75.69,75.67,75.67, 872
02/06/2020,18:56,75.68,75.74,75.68,75.73, 2500
02/06/2020,18:56,75.73,75.74,75.73,75.74, 400
02/06/2020,18:58,75.75,75.75,75.68,75.68, 913
02/06/2020,18:58,75.64,75.66,75.61,75.61, 625
02/06/2020,19:00,75.63,75.66,75.63,75.64, 1082
02/06/2020,19:01,75.62,75.66,75.62,75.66, 600
02/06/2020,19:02,75.64,75.65,75.62,75.62, 1113
02/06/2020,19:03,75.61,75.67,75.57,75.65, 3696
02/06/2020,19:04,75.65,75.72,75.65,75.72, 2222
02/06/2020,19:05,75.72,75.74,75.71,75.73, 1662
02/06/2020,19:05,75.74,75.76,75.73,75.76, 800
02/06/2020,19:07,75.73,75.73,75.69,75.69, 641
02/06/2020,19:08,75.69,75.69,75.65,75.65, 3816
02/06/2020,19:08,75.65,75.65,75.59,75.61, 6940
02/06/2020,19:10,75.6,75.64,75.59,75.64, 1606
02/06/2020,19:10,75.66,75.67,75.65,75.67, 500
02/06/2020,19:12,75.68,75.71,75.66,75.67, 1236
02/06/2020,19:13,75.66,75.66,75.63,75.63, 600
02/06/2020,19:14,75.63,75.63,75.6,75.6, 1100
02/06/2020,19:15,75.6,75.6,75.57,75.59, 19276
02/06/2020,19:16,75.58,75.63,75.58,75.63, 2701
02/06/2020,19:17,75.62,75.62,75.59,75.59, 500
02/06/2020,19:18,75.55,75.57,75.54,75.54, 1233
02/06/2020,19:19,75.54,75.56,75.5,75.54, 3921
02/06/2020,19:19,75.54,75.55,75.53,75.55, 1065
02/06/2020,19:21,75.57,75.59,75.56,75.56, 1246
02/06/2020,19:22,75.5,75.53,75.5,75.51, 2200
02/06/2020,19:23,75.48,75.51,75.46,75.49, 3396
02/06/2020,19:24,75.48,75.49,75.48,75.49, 200
02/06/2020,19:25,75.48,75.49,75.48,75.49, 1058
02/06/2020,19:26,75.49,75.61,75.49,75.61, 20573
02/06/2020,19:27,75.63,75.64,75.57,75.61, 4593
02/06/2020,19:28,75.6,75.62,75.58,75.62, 600
02/06/2020,19:28,75.62,75.62,75.62,75.62, 273
02/06/2020,19:29,75.65,75.69,75.64,75.66, 8088
02/06/2020,19:31,75.64,75.64,75.57,75.58, 1800
02/06/2020,19:32,75.57,75.59,75.54,75.59, 1805
02/06/2020,19:33,75.57,75.59,75.55,75.59, 2990
02/06/2020,19:33,75.59,75.59,75.59,75.59, 570
02/06/2020,19:35,75.63,75.63,75.59,75.59, 2095
02/06/2020,19:36,75.59,75.63,75.59,75.62, 2187
02/06/2020,19:37,75.62,75.62,75.58,75.61, 2785
02/06/2020,19:38,75.6,75.61,75.59,75.61, 2672
02/06/2020,19:38,75.61,75.61,75.6,75.6, 1569
02/06/2020,19:40,75.62,75.65,75.62,75.63, 1700
02/06/2020,19:41,75.63,75.63,75.63,75.63, 565
02/06/2020,19:42,75.63,75.65,75.6,75.62, 3830
02/06/2020,19:42,75.66,75.67,75.66,75.66, 621
02/06/2020,19:44,75.66,75.68,75.66,75.68, 1643
02/06/2020,19:45,75.68,75.72,75.68,75.72, 700
02/06/2020,19:45,75.73,75.74,75.73,75.74, 626
02/06/2020,19:47,75.76,75.78,75.76,75.77, 500
02/06/2020,19:48,75.76,75.78,75.76,75.77, 1937
02/06/2020,19:49,75.79,75.82,75.78,75.82, 2389
02/06/2020,19:50,75.8,75.83,75.8,75.83, 500
02/06/2020,19:51,75.83,75.84,75.79,75.79, 1695
02/06/2020,19:51,75.8,75.84,75.8,75.81, 4100
02/06/2020,19:53,75.81,75.82,75.79,75.82, 716
02/06/2020,19:54,75.86,75.86,75.82,75.82, 765
02/06/2020,19:55,75.83,75.85,75.83,75.83, 600
02/06/2020,19:56,75.83,75.83,75.81,75.83, 900
02/06/2020,19:57,75.85,75.89,75.85,75.88, 1286
02/06/2020,19:58,75.88,75.88,75.83,75.84, 1650
02/06/2020,19:59,75.85,75.87,75.84,75.84, 1156
02/06/2020,20:00,75.87,75.88,75.84,75.84, 4801
02/06/2020,20:01,75.84,75.84,75.82,75.83, 1600
02/06/2020,20:02,75.83,75.84,75.79,75.8, 1758
02/06/2020,20:03,75.79,75.82,75.76,75.82, 2127
02/06/2020,20:04,75.84,75.85,75.81,75.83, 1433
02/06/2020,20:05,75.83,75.9,75.82,75.89, 2685
02/06/2020,20:06,75.87,75.89,75.84,75.85, 2318
02/06/2020,20:07,75.86,75.86,75.82,75.82, 831
02/06/2020,20:08,75.81,75.89,75.81,75.89, 1632
02/06/2020,20:09,75.91,75.91,75.89,75.9, 1634
02/06/2020,20:09,75.89,75.92,75.88,75.92, 1400
02/06/2020,20:11,75.92,75.93,75.82,75.82, 1395
02/06/2020,20:12,75.83,75.84,75.82,75.83, 1860
02/06/2020,20:13,75.85,75.86,75.82,75.84, 2425
02/06/2020,20:14,75.85,75.87,75.85,75.86, 900
02/06/2020,20:15,75.84,75.9,75.84,75.89, 1607
02/06/2020,20:16,75.88,75.91,75.88,75.91, 1448
02/06/2020,20:17,75.93,75.93,75.88,75.9, 800
02/06/2020,20:18,75.91,75.91,75.88,75.89, 600
02/06/2020,20:19,75.91,75.96,75.89,75.96, 1310
02/06/2020,20:20,75.98,76,75.94,75.94, 1300
02/06/2020,20:21,75.93,75.93,75.83,75.9, 3355
02/06/2020,20:22,75.89,75.89,75.88,75.88, 400
02/06/2020,20:23,75.86,75.9,75.86,75.9, 1531
02/06/2020,20:24,75.89,75.89,75.84,75.85, 2215
02/06/2020,20:25,75.86,75.92,75.84,75.92, 1230
02/06/2020,20:26,75.91,75.93,75.9,75.92, 506
02/06/2020,20:27,75.9,75.91,75.86,75.89, 965
02/06/2020,20:28,75.84,75.84,75.82,75.82, 2320
02/06/2020,20:29,75.8,75.83,75.79,75.82, 1569
02/06/2020,20:30,75.82,75.94,75.82,75.94, 1600
02/06/2020,20:31,75.94,76.03,75.94,76, 2499
02/06/2020,20:32,76.02,76.06,76.01,76.04, 1070
02/06/2020,20:33,76.06,76.06,76.04,76.05, 1841
02/06/2020,20:34,76.06,76.06,76.02,76.06, 1951
02/06/2020,20:35,76.08,76.1,76.06,76.09, 3808
02/06/2020,20:36,76.08,76.08,76.04,76.04, 1122
02/06/2020,20:37,76.04,76.04,75.96,76.01, 1986
02/06/2020,20:38,76.02,76.05,76,76.05, 1615
02/06/2020,20:39,76.04,76.04,76.04,76.04, 627
02/06/2020,20:40,76.04,76.04,76.02,76.04, 1100
02/06/2020,20:41,76,76.04,75.98,76.04, 1890
02/06/2020,20:41,76.05,76.07,76.05,76.07, 400
02/06/2020,20:43,76.05,76.06,76.04,76.04, 1500
02/06/2020,20:44,76.03,76.05,76.02,76.03, 1031
02/06/2020,20:45,76.04,76.06,76.04,76.06, 1401
02/06/2020,20:46,76.05,76.07,76.02,76.02, 1801
02/06/2020,20:47,76.03,76.05,76,76, 2148
02/06/2020,20:48,75.99,76.02,75.98,76.02, 1400
02/06/2020,20:49,76.02,76.02,76.02,76.02, 658
02/06/2020,20:50,76.01,76.05,76.01,76.05, 6060
02/06/2020,20:51,76.06,76.13,76.06,76.12, 3158
02/06/2020,20:52,76.1,76.1,76.07,76.08, 1129
02/06/2020,20:53,76.09,76.17,76.09,76.17, 2585
02/06/2020,20:54,76.18,76.19,76.17,76.19, 900
02/06/2020,20:55,76.2,76.2,76.18,76.18, 1580
02/06/2020,20:56,76.15,76.16,76.1,76.12, 2340
02/06/2020,20:57,76.13,76.13,76.11,76.12, 922
02/06/2020,20:58,76.13,76.13,76.1,76.11, 1403
02/06/2020,20:59,76.13,76.14,76.1,76.14, 2863
02/06/2020,21:00,76.12,76.17,76.08,76.08, 2717
02/06/2020,21:01,76.07,76.11,76.05,76.11, 5658
02/06/2020,21:02,76.1,76.11,76.06,76.08, 2004
02/06/2020,21:03,76.06,76.06,76,76.02, 1703
02/06/2020,21:04,76.02,76.08,76.02,76.08, 3980
02/06/2020,21:05,76.08,76.09,76.05,76.05, 803
02/06/2020,21:06,76.06,76.14,76.06,76.14, 2810
02/06/2020,21:07,76.14,76.15,76.12,76.12, 1623
02/06/2020,21:08,76.13,76.16,76.13,76.15, 2159
02/06/2020,21:09,76.13,76.15,76.11,76.12, 1713
02/06/2020,21:10,76.12,76.13,76.09,76.11, 3783
02/06/2020,21:11,76.13,76.16,76.13,76.15, 2206
02/06/2020,21:12,76.15,76.16,76.13,76.13, 2911
02/06/2020,21:13,76.13,76.13,76.12,76.13, 577
02/06/2020,21:13,76.12,76.12,76.07,76.07, 1275
02/06/2020,21:15,76.08,76.11,76.05,76.11, 2123
02/06/2020,21:16,76.1,76.11,76.07,76.09, 1830
02/06/2020,21:17,76.06,76.1,76.06,76.1, 1900
02/06/2020,21:18,76.09,76.18,76.09,76.18, 3903
02/06/2020,21:19,76.18,76.21,76.16,76.2, 7160
02/06/2020,21:20,76.2,76.21,76.18,76.18, 15131
02/06/2020,21:21,76.16,76.17,76.14,76.16, 14002
02/06/2020,21:22,76.16,76.16,76.11,76.12, 8141
02/06/2020,21:23,76.12,76.15,76.06,76.1, 13078
02/06/2020,21:24,76.12,76.17,76.11,76.16, 2890
02/06/2020,21:24,76.14,76.14,76.11,76.12, 1400
02/06/2020,21:26,76.11,76.14,76.1,76.14, 4453
02/06/2020,21:27,76.14,76.14,76.06,76.11, 12035
02/06/2020,21:28,76.08,76.11,76.08,76.09, 2224
02/06/2020,21:28,76.09,76.12,76.09,76.12, 3362
02/06/2020,21:30,76.13,76.16,76.11,76.16, 10863
02/06/2020,21:31,76.16,76.19,76.15,76.17, 5784
02/06/2020,21:32,76.18,76.2,76.13,76.16, 5506
02/06/2020,21:33,76.15,76.15,76.04,76.1, 6416
02/06/2020,21:34,76.11,76.14,76.08,76.13, 2348
02/06/2020,21:35,76.14,76.14,76.1,76.11, 2000
02/06/2020,21:36,76.13,76.15,76.1,76.15, 4591
02/06/2020,21:37,76.15,76.16,76.13,76.14, 4413
02/06/2020,21:38,76.16,76.17,76.07,76.09, 5753
02/06/2020,21:39,76.08,76.1,76.03,76.03, 3400
02/06/2020,21:40,76.04,76.07,76.03,76.07, 3753
02/06/2020,21:41,76.07,76.08,76.05,76.05, 1688
02/06/2020,21:42,76.05,76.05,76.02,76.04, 3710
02/06/2020,21:43,76.05,76.08,76.05,76.07, 5122
02/06/2020,21:44,76.06,76.12,76.05,76.12, 2780
02/06/2020,21:45,76.12,76.12,76.04,76.04, 3195
02/06/2020,21:46,76.04,76.08,76.03,76.07, 3811
02/06/2020,21:47,76.08,76.08,76,76, 3334
02/06/2020,21:48,76.01,76.01,75.96,75.98, 5412
02/06/2020,21:49,75.96,75.96,75.89,75.89, 4728
02/06/2020,21:50,75.89,75.89,75.79,75.85, 17624
02/06/2020,21:51,75.86,75.88,75.79,75.88, 7904
02/06/2020,21:52,75.88,75.89,75.85,75.86, 9060
02/06/2020,21:53,75.86,75.89,75.82,75.89, 8937
02/06/2020,21:54,75.87,75.87,75.84,75.86, 4124
02/06/2020,21:55,75.87,75.9,75.87,75.9, 3984
02/06/2020,21:56,75.89,75.95,75.86,75.95, 8676
02/06/2020,21:57,75.95,75.96,75.89,75.9, 8497
02/06/2020,21:58,75.9,75.91,75.87,75.9, 14348
02/06/2020,21:59,75.91,75.91,75.83,75.88, 17662
02/06/2020,22:00,75.88,75.93,75.85,75.9, 37955
02/06/2020,22:01,75.9,75.91,75.82,75.87, 23359
02/06/2020,22:01,75.87,75.87,75.87,75.87, 227597
02/07/2020,15:31,74.85,75.04,74.81,74.81, 33172
02/07/2020,15:32,74.71,74.78,74.5,74.78, 9850
02/07/2020,15:33,74.65,74.67,74.41,74.41, 992
02/07/2020,15:34,74.43,74.66,74.43,74.53, 12749
02/07/2020,15:35,74.62,75.1,74.53,75.05, 5789
02/07/2020,15:36,75.02,75.09,74.59,74.59, 2300
02/07/2020,15:37,74.81,74.81,74.63,74.63, 622
02/07/2020,15:38,74.65,74.81,74.64,74.81, 2165
02/07/2020,15:39,74.87,75.03,74.87,75.03, 1370
02/07/2020,15:40,74.99,74.99,74.75,74.79, 1505
02/07/2020,15:41,74.74,74.79,74.7,74.7, 9690
02/07/2020,15:42,74.71,74.76,74.68,74.68, 2752
02/07/2020,15:43,74.73,74.73,74.55,74.55, 6898
02/07/2020,15:44,74.55,74.7,74.54,74.7, 2119
02/07/2020,15:45,74.66,74.75,74.65,74.75, 2732
02/07/2020,15:46,74.73,74.78,74.7,74.7, 9305
02/07/2020,15:47,74.76,74.76,74.63,74.63, 1748
02/07/2020,15:48,74.64,74.69,74.64,74.65, 500
02/07/2020,15:49,74.65,74.8,74.65,74.8, 1150
02/07/2020,15:50,74.72,74.9,74.68,74.81, 7970
02/07/2020,15:51,74.7,74.81,74.7,74.79, 1898
02/07/2020,15:52,74.84,74.89,74.82,74.82, 3047
02/07/2020,15:52,74.88,74.88,74.79,74.83, 1647
02/07/2020,15:54,74.91,74.96,74.91,74.94, 3902
02/07/2020,15:55,74.97,74.99,74.92,74.99, 634
02/07/2020,15:56,74.97,75.01,74.93,74.93, 2220
02/07/2020,15:57,74.82,74.84,74.79,74.84, 1599
02/07/2020,15:58,74.82,74.82,74.75,74.8, 300
02/07/2020,15:59,74.71,74.71,74.71,74.71, 200
02/07/2020,16:00,74.71,74.74,74.66,74.71, 1235
02/07/2020,16:01,74.75,74.75,74.68,74.69, 409
02/07/2020,16:02,74.67,74.72,74.66,74.66, 1557
02/07/2020,16:03,74.72,74.74,74.65,74.65, 2300
02/07/2020,16:04,74.64,74.65,74.58,74.6, 2154
02/07/2020,16:05,74.59,74.62,74.48,74.48, 5022
02/07/2020,16:06,74.46,74.54,74.31,74.31, 7941
02/07/2020,16:07,74.32,74.5,74.3,74.5, 3095
02/07/2020,16:08,74.46,74.53,74.46,74.5, 1203
02/07/2020,16:09,74.53,74.53,74.41,74.41, 2882
02/07/2020,16:10,74.41,74.42,74.34,74.34, 2596
02/07/2020,16:11,74.37,74.45,74.36,74.45, 1528
02/07/2020,16:12,74.46,74.6,74.44,74.59, 2000
02/07/2020,16:13,74.63,74.75,74.58,74.75, 1300
02/07/2020,16:14,74.71,74.75,74.6,74.6, 2935
02/07/2020,16:15,74.6,74.6,74.54,74.58, 1972
02/07/2020,16:16,74.58,74.58,74.51,74.51, 997
02/07/2020,16:17,74.44,74.48,74.44,74.48, 450
02/07/2020,16:18,74.51,74.56,74.44,74.49, 5152
02/07/2020,16:19,74.49,74.65,74.49,74.55, 2118
02/07/2020,16:20,74.6,74.68,74.55,74.58, 4711
02/07/2020,16:21,74.58,74.69,74.58,74.63, 9497
02/07/2020,16:22,74.64,74.64,74.48,74.48, 2989
02/07/2020,16:23,74.48,74.48,74.33,74.37, 4918
02/07/2020,16:24,74.33,74.33,74.19,74.19, 11666
02/07/2020,16:25,74.21,74.28,74.16,74.18, 19254
02/07/2020,16:26,74.18,74.21,74.03,74.03, 7651
02/07/2020,16:27,74.08,74.12,73.96,74.04, 7685
02/07/2020,16:28,74.04,74.12,73.96,74.01, 7419
02/07/2020,16:29,74.01,74.09,73.98,74.09, 4963
02/07/2020,16:30,74.06,74.06,73.94,73.96, 2291
02/07/2020,16:31,73.95,73.99,73.93,73.97, 1401
02/07/2020,16:32,73.97,74.06,73.97,74, 4492
02/07/2020,16:33,74.01,74.01,73.9,73.94, 4181
02/07/2020,16:34,73.96,74.04,73.96,74.01, 1545
02/07/2020,16:35,74.05,74.12,74.05,74.12, 1981
02/07/2020,16:35,74.1,74.19,74.1,74.19, 800
02/07/2020,16:37,74.22,74.24,74.11,74.11, 1599
02/07/2020,16:38,74.12,74.13,74.08,74.1, 1511
02/07/2020,16:39,74.1,74.22,74.1,74.22, 910
02/07/2020,16:40,74.22,74.24,74.1,74.13, 2269
02/07/2020,16:40,74.13,74.13,74.13,74.13, 206
02/07/2020,16:42,74.1,74.16,74.06,74.16, 2798
02/07/2020,16:42,74.14,74.14,74.08,74.08, 4762
02/07/2020,16:44,74.03,74.09,74.03,74.07, 900
02/07/2020,16:45,74.17,74.24,74.16,74.19, 2459
02/07/2020,16:46,74.18,74.25,74.18,74.2, 1900
02/07/2020,16:47,74.19,74.21,74.18,74.21, 1600
02/07/2020,16:48,74.2,74.2,74.03,74.03, 4771
02/07/2020,16:48,74.03,74.04,74,74.01, 1233
02/07/2020,16:50,73.99,74.03,73.92,73.98, 5322
02/07/2020,16:50,73.99,74.06,73.99,74.06, 1248
02/07/2020,16:52,74.1,74.1,74.05,74.05, 2942
02/07/2020,16:53,74.05,74.08,74,74.08, 3307
02/07/2020,16:54,74.08,74.08,74.04,74.05, 1127
02/07/2020,16:55,74.04,74.14,74.04,74.14, 2455
02/07/2020,16:56,74.13,74.14,74.06,74.12, 1890
02/07/2020,16:57,74.08,74.1,74.08,74.09, 1699
02/07/2020,16:58,74.1,74.25,74.1,74.25, 1840
02/07/2020,16:59,74.29,74.3,74.25,74.27, 4852
02/07/2020,17:00,74.28,74.29,74.25,74.27, 4818
02/07/2020,17:01,74.29,74.38,74.17,74.17, 7755
02/07/2020,17:02,74.19,74.29,74.19,74.29, 2899
02/07/2020,17:03,74.28,74.28,74.22,74.24, 3450
02/07/2020,17:04,74.23,74.3,74.21,74.3, 1947
02/07/2020,17:05,74.35,74.37,74.3,74.35, 852
02/07/2020,17:06,74.37,74.42,74.37,74.4, 4597
02/07/2020,17:07,74.41,74.51,74.4,74.46, 11939
02/07/2020,17:08,74.46,74.49,74.42,74.42, 2719
02/07/2020,17:09,74.45,74.5,74.45,74.49, 2635
02/07/2020,17:10,74.45,74.45,74.37,74.37, 2200
02/07/2020,17:11,74.39,74.39,74.34,74.34, 600
02/07/2020,17:12,74.34,74.34,74.27,74.33, 3040
02/07/2020,17:13,74.36,74.42,74.36,74.42, 888
02/07/2020,17:14,74.44,74.46,74.39,74.39, 1769
02/07/2020,17:15,74.42,74.48,74.42,74.47, 1950
02/07/2020,17:16,74.44,74.46,74.41,74.41, 802
02/07/2020,17:17,74.42,74.5,74.42,74.5, 2568
02/07/2020,17:18,74.5,74.55,74.47,74.52, 8898
02/07/2020,17:19,74.52,74.52,74.48,74.49, 9618
02/07/2020,17:20,74.51,74.53,74.48,74.48, 1738
02/07/2020,17:21,74.48,74.58,74.48,74.58, 8298
02/07/2020,17:22,74.59,74.63,74.59,74.63, 2700
02/07/2020,17:23,74.63,74.72,74.63,74.71, 500
02/07/2020,17:24,74.76,74.8,74.75,74.77, 4442
02/07/2020,17:25,74.81,74.95,74.81,74.95, 700
02/07/2020,17:26,74.93,75.07,74.93,75.06, 4710
02/07/2020,17:27,75.08,75.08,75.01,75.04, 6332
02/07/2020,17:28,75.01,75.01,74.9,74.93, 4303
02/07/2020,17:29,74.93,75.01,74.91,74.95, 3928
02/07/2020,17:30,75,75,74.93,74.96, 4370
02/07/2020,17:31,74.97,75.02,74.91,74.97, 7080
02/07/2020,17:32,74.97,74.98,74.95,74.97, 1700
02/07/2020,17:33,74.98,75.04,74.98,74.98, 3400
02/07/2020,17:34,74.98,75.04,74.96,75, 6915
02/07/2020,17:35,74.99,74.99,74.96,74.97, 704
02/07/2020,17:36,74.96,74.96,74.92,74.92, 1400
02/07/2020,17:37,74.93,74.99,74.93,74.95, 1054
02/07/2020,17:37,74.92,74.93,74.92,74.92, 402
02/07/2020,17:39,74.87,74.87,74.83,74.86, 2228
02/07/2020,17:40,74.85,74.85,74.78,74.8, 917
02/07/2020,17:41,74.82,74.87,74.82,74.87, 3347
02/07/2020,17:42,74.91,74.94,74.91,74.92, 1348
02/07/2020,17:43,74.96,75.01,74.96,74.99, 6128
02/07/2020,17:44,75,75,74.98,75, 700
02/07/2020,17:44,74.96,74.96,74.94,74.95, 700
02/07/2020,17:46,74.95,74.97,74.89,74.89, 2004
02/07/2020,17:47,74.88,74.91,74.82,74.85, 3206
02/07/2020,17:48,74.86,74.88,74.84,74.84, 1634
02/07/2020,17:49,74.85,74.87,74.82,74.86, 1249
02/07/2020,17:50,74.88,74.9,74.86,74.88, 1695
02/07/2020,17:51,74.87,74.9,74.85,74.85, 679
02/07/2020,17:51,74.82,74.89,74.82,74.88, 1938
02/07/2020,17:52,74.87,74.88,74.87,74.88, 520
02/07/2020,17:54,74.87,74.96,74.86,74.96, 1796
02/07/2020,17:55,74.94,74.95,74.91,74.91, 600
02/07/2020,17:56,74.91,74.91,74.83,74.85, 1201
02/07/2020,17:56,74.89,74.89,74.86,74.88, 300
02/07/2020,17:58,74.86,74.9,74.86,74.89, 599
02/07/2020,17:59,74.87,74.94,74.87,74.94, 875
02/07/2020,18:00,74.93,74.94,74.9,74.94, 1200
02/07/2020,18:01,74.95,74.98,74.94,74.94, 1450
02/07/2020,18:02,74.96,74.99,74.96,74.98, 700
02/07/2020,18:02,75.01,75.01,75.01,75.01, 300
02/07/2020,18:04,75.05,75.1,75.04,75.1, 1173
02/07/2020,18:05,75.11,75.13,75.1,75.13, 500
02/07/2020,18:05,75.08,75.15,75.08,75.15, 1707
02/07/2020,18:07,75.11,75.14,75.11,75.13, 400
02/07/2020,18:07,75.1,75.13,75.1,75.13, 399
02/07/2020,18:09,75.12,75.17,75.1,75.17, 1040
02/07/2020,18:10,75.18,75.18,75.11,75.12, 1203
02/07/2020,18:11,75.09,75.09,75.05,75.05, 900
02/07/2020,18:11,75.07,75.09,75.07,75.09, 500
02/07/2020,18:13,75.06,75.11,75.05,75.08, 1103
02/07/2020,18:14,75.1,75.1,75.06,75.06, 500
02/07/2020,18:15,75.05,75.08,75.05,75.07, 1300
02/07/2020,18:16,75.06,75.09,75.06,75.09, 833
02/07/2020,18:17,75.12,75.17,75.1,75.17, 1023
02/07/2020,18:18,75.17,75.17,75.14,75.14, 582
02/07/2020,18:19,75.08,75.08,75,75.04, 738
02/07/2020,18:20,75.02,75.04,75,75.04, 1418
02/07/2020,18:21,75.02,75.05,74.99,74.99, 900
02/07/2020,18:22,75,75.04,75,75.03, 400
02/07/2020,18:23,75.03,75.03,75.01,75.01, 300
02/07/2020,18:24,74.98,74.98,74.96,74.96, 1484
02/07/2020,18:25,74.97,75,74.96,74.96, 1127
02/07/2020,18:26,75,75.01,74.97,75.01, 1080
02/07/2020,18:27,75.02,75.03,75.02,75.03, 200
02/07/2020,18:28,75.02,75.02,74.96,74.97, 942
02/07/2020,18:28,74.97,74.97,74.96,74.96, 1357
02/07/2020,18:30,74.96,74.99,74.95,74.99, 781
02/07/2020,18:31,74.98,75.04,74.98,75.04, 500
02/07/2020,18:32,75.03,75.03,75,75.03, 1399
02/07/2020,18:33,74.98,74.98,74.94,74.98, 500
02/07/2020,18:34,74.97,75.01,74.96,74.96, 914
02/07/2020,18:35,74.95,74.95,74.94,74.94, 599
02/07/2020,18:36,74.93,74.93,74.9,74.9, 400
02/07/2020,18:37,74.91,74.96,74.89,74.95, 1873
02/07/2020,18:38,74.95,74.96,74.95,74.95, 901
02/07/2020,18:38,74.94,74.94,74.87,74.92, 1400
02/07/2020,18:40,74.91,74.91,74.86,74.89, 1100
02/07/2020,18:41,74.88,74.91,74.88,74.89, 700
02/07/2020,18:42,74.87,74.94,74.87,74.94, 1577
02/07/2020,18:43,74.95,74.96,74.91,74.91, 1600
02/07/2020,18:44,74.89,74.97,74.89,74.97, 1774
02/07/2020,18:45,74.98,75.01,74.93,74.93, 1220
02/07/2020,18:46,74.93,74.99,74.93,74.99, 2370
02/07/2020,18:46,74.97,74.99,74.97,74.97, 700
02/07/2020,18:47,74.94,74.98,74.94,74.96, 900
02/07/2020,18:49,74.96,74.98,74.96,74.96, 638
02/07/2020,18:50,74.98,75,74.98,75, 1026
02/07/2020,18:51,75.02,75.02,74.99,74.99, 600
02/07/2020,18:51,74.97,74.98,74.94,74.96, 1300
02/07/2020,18:53,74.97,74.97,74.92,74.92, 1587
02/07/2020,18:54,74.9,74.9,74.83,74.85, 2303
02/07/2020,18:55,74.84,74.85,74.81,74.83, 2040
02/07/2020,18:56,74.84,74.88,74.84,74.85, 3231
02/07/2020,18:57,74.84,74.84,74.81,74.81, 938
02/07/2020,18:58,74.8,74.81,74.79,74.81, 1718
02/07/2020,18:58,74.8,74.8,74.78,74.79, 1744
02/07/2020,18:59,74.77,74.79,74.75,74.75, 3022
02/07/2020,19:00,74.74,74.76,74.74,74.75, 844
02/07/2020,19:02,74.74,74.75,74.73,74.74, 700
02/07/2020,19:03,74.72,74.72,74.7,74.7, 581
02/07/2020,19:04,74.71,74.72,74.67,74.67, 6354
02/07/2020,19:04,74.69,74.71,74.69,74.7, 900
02/07/2020,19:06,74.69,74.72,74.68,74.72, 1800
02/07/2020,19:06,74.72,74.73,74.68,74.7, 6200
02/07/2020,19:08,74.68,74.73,74.67,74.69, 1200
02/07/2020,19:09,74.72,74.77,74.72,74.77, 3362
02/07/2020,19:10,74.77,74.78,74.74,74.77, 1829
02/07/2020,19:11,74.74,74.78,74.73,74.73, 1100
02/07/2020,19:12,74.75,74.78,74.71,74.74, 3027
02/07/2020,19:13,74.74,74.78,74.74,74.78, 602
02/07/2020,19:14,74.78,74.78,74.76,74.76, 800
02/07/2020,19:14,74.78,74.84,74.78,74.82, 3745
02/07/2020,19:16,74.82,74.88,74.82,74.88, 1100
02/07/2020,19:17,74.84,74.87,74.82,74.85, 907
02/07/2020,19:18,74.85,74.87,74.83,74.83, 1600
02/07/2020,19:19,74.83,74.86,74.83,74.85, 500
02/07/2020,19:20,74.82,74.84,74.82,74.84, 500
02/07/2020,19:21,74.84,74.88,74.84,74.87, 1758
02/07/2020,19:22,74.89,74.94,74.89,74.94, 900
02/07/2020,19:22,74.92,74.95,74.91,74.95, 1349
02/07/2020,19:24,74.94,74.97,74.94,74.95, 4100
02/07/2020,19:25,74.97,75.01,74.97,75, 1200
02/07/2020,19:26,74.98,75,74.95,74.97, 3001
02/07/2020,19:27,74.92,74.95,74.92,74.95, 2108
02/07/2020,19:28,74.94,74.96,74.94,74.94, 500
02/07/2020,19:28,74.96,74.96,74.96,74.96, 400
02/07/2020,19:30,74.97,75.03,74.97,75.03, 2839
02/07/2020,19:30,75.02,75.05,75.02,75.05, 1226
02/07/2020,19:32,75.06,75.12,75.04,75.12, 2528
02/07/2020,19:32,75.13,75.16,75.13,75.16, 991
02/07/2020,19:34,75.17,75.18,75.14,75.18, 1600
02/07/2020,19:34,75.18,75.18,75.16,75.17, 700
02/07/2020,19:36,75.14,75.21,75.06,75.06, 5303
02/07/2020,19:37,75.04,75.32,75.04,75.19, 7072
02/07/2020,19:38,75.21,75.27,75.21,75.26, 2042
02/07/2020,19:39,75.22,75.23,75.2,75.23, 800
02/07/2020,19:40,75.2,75.22,75.16,75.21, 1802
02/07/2020,19:40,75.25,75.25,75.19,75.21, 1230
02/07/2020,19:42,75.17,75.17,75.11,75.11, 600
02/07/2020,19:43,75.12,75.12,75.06,75.11, 713
02/07/2020,19:44,75.11,75.13,75.06,75.06, 710
02/07/2020,19:45,75.06,75.09,75.04,75.09, 1599
02/07/2020,19:45,75.1,75.13,75.1,75.12, 2213
02/07/2020,19:47,75.11,75.11,75.08,75.09, 1215
02/07/2020,19:48,75.07,75.1,75.07,75.1, 1900
02/07/2020,19:49,75.09,75.09,75.04,75.04, 1394
02/07/2020,19:50,75.07,75.07,75.04,75.04, 400
02/07/2020,19:51,75.04,75.05,75.02,75.03, 1492
02/07/2020,19:52,75.05,75.08,75.04,75.06, 1768
02/07/2020,19:53,75.07,75.1,75.06,75.07, 2468
02/07/2020,19:54,75.11,75.11,75.1,75.1, 300
02/07/2020,19:55,75.1,75.13,75.06,75.08, 600
02/07/2020,19:55,75.09,75.09,75.07,75.07, 200
02/07/2020,19:56,75.05,75.05,75.03,75.03, 300
02/07/2020,19:58,75.04,75.04,74.95,74.95, 3361
02/07/2020,19:58,74.97,75.01,74.97,74.99, 1047
02/07/2020,20:00,74.95,74.95,74.89,74.89, 701
02/07/2020,20:01,74.92,74.92,74.86,74.91, 2060
02/07/2020,20:02,74.87,74.89,74.85,74.85, 901
02/07/2020,20:03,74.88,74.88,74.85,74.87, 6662
02/07/2020,20:04,74.86,74.89,74.84,74.88, 1325
02/07/2020,20:05,74.89,74.89,74.79,74.81, 4540
02/07/2020,20:05,74.79,74.79,74.76,74.77, 2074
02/07/2020,20:07,74.74,74.79,74.74,74.78, 1713
02/07/2020,20:08,74.81,74.81,74.7,74.77, 4883
02/07/2020,20:09,74.8,74.8,74.69,74.69, 1403
02/07/2020,20:09,74.68,74.71,74.66,74.71, 905
02/07/2020,20:11,74.7,74.7,74.6,74.61, 2900
02/07/2020,20:12,74.62,74.68,74.61,74.63, 2994
02/07/2020,20:13,74.62,74.63,74.55,74.59, 1900
02/07/2020,20:13,74.59,74.61,74.57,74.57, 2637
02/07/2020,20:15,74.57,74.59,74.57,74.58, 3096
02/07/2020,20:16,74.6,74.62,74.53,74.55, 2444
02/07/2020,20:16,74.57,74.6,74.56,74.59, 1356
02/07/2020,20:18,74.55,74.55,74.46,74.48, 2883
02/07/2020,20:19,74.46,74.52,74.46,74.5, 3733
02/07/2020,20:20,74.52,74.55,74.52,74.55, 1300
02/07/2020,20:21,74.54,74.54,74.47,74.47, 1082
02/07/2020,20:22,74.49,74.52,74.47,74.47, 4124
02/07/2020,20:23,74.51,74.53,74.42,74.42, 8460
02/07/2020,20:24,74.45,74.45,74.37,74.39, 3987
02/07/2020,20:25,74.4,74.42,74.38,74.42, 7809
02/07/2020,20:26,74.42,74.44,74.38,74.39, 2611
02/07/2020,20:27,74.41,74.42,74.36,74.36, 2905
02/07/2020,20:28,74.39,74.4,74.36,74.4, 2843
02/07/2020,20:29,74.4,74.41,74.38,74.4, 3099
02/07/2020,20:30,74.41,74.45,74.37,74.45, 2033
02/07/2020,20:31,74.42,74.62,74.42,74.62, 4947
02/07/2020,20:32,74.61,74.62,74.54,74.55, 11472
02/07/2020,20:33,74.55,74.55,74.53,74.54, 1884
02/07/2020,20:34,74.54,74.56,74.51,74.51, 4604
02/07/2020,20:35,74.51,74.51,74.49,74.5, 2501
02/07/2020,20:36,74.48,74.48,74.46,74.46, 6294
02/07/2020,20:37,74.47,74.51,74.45,74.51, 4829
02/07/2020,20:38,74.51,74.51,74.48,74.49, 2263
02/07/2020,20:39,74.47,74.5,74.47,74.48, 1339
02/07/2020,20:40,74.48,74.48,74.46,74.48, 2300
02/07/2020,20:41,74.49,74.51,74.44,74.44, 4278
02/07/2020,20:42,74.46,74.47,74.42,74.42, 2750
02/07/2020,20:43,74.44,74.44,74.34,74.35, 22627
02/07/2020,20:44,74.33,74.39,74.33,74.35, 11574
02/07/2020,20:45,74.36,74.39,74.34,74.39, 5651
02/07/2020,20:46,74.4,74.43,74.37,74.39, 10534
02/07/2020,20:47,74.39,74.4,74.35,74.35, 4430
02/07/2020,20:48,74.34,74.38,74.34,74.35, 3144
02/07/2020,20:49,74.34,74.36,74.33,74.36, 1200
02/07/2020,20:50,74.38,74.38,74.32,74.33, 2808
02/07/2020,20:51,74.31,74.31,74.3,74.3, 1727
02/07/2020,20:52,74.31,74.35,74.3,74.3, 2551
02/07/2020,20:53,74.32,74.37,74.28,74.32, 4967
02/07/2020,20:54,74.33,74.35,74.33,74.34, 600
02/07/2020,20:55,74.32,74.36,74.3,74.32, 4081
02/07/2020,20:55,74.32,74.33,74.29,74.33, 2959
02/07/2020,20:57,74.35,74.37,74.32,74.32, 3450
02/07/2020,20:58,74.35,74.37,74.33,74.37, 3576
02/07/2020,20:59,74.37,74.41,74.37,74.38, 2817
02/07/2020,21:00,74.37,74.37,74.31,74.31, 6302
02/07/2020,21:00,74.32,74.32,74.29,74.29, 1000
02/07/2020,21:02,74.29,74.32,74.29,74.32, 3367
02/07/2020,21:03,74.31,74.32,74.28,74.3, 4990
02/07/2020,21:04,74.3,74.3,74.23,74.25, 3171
02/07/2020,21:05,74.21,74.27,74.21,74.23, 5551
02/07/2020,21:06,74.19,74.23,74.18,74.21, 2607
02/07/2020,21:07,74.22,74.27,74.21,74.26, 3158
02/07/2020,21:07,74.29,74.29,74.27,74.29, 1552
02/07/2020,21:09,74.29,74.37,74.27,74.36, 3309
02/07/2020,21:09,74.37,74.37,74.35,74.35, 1944
02/07/2020,21:11,74.35,74.37,74.33,74.35, 2814
02/07/2020,21:12,74.38,74.41,74.37,74.37, 2341
02/07/2020,21:13,74.39,74.39,74.31,74.31, 3332
02/07/2020,21:14,74.32,74.4,74.32,74.4, 7103
02/07/2020,21:15,74.38,74.44,74.37,74.41, 3549
02/07/2020,21:16,74.43,74.49,74.43,74.45, 3609
02/07/2020,21:17,74.48,74.52,74.48,74.49, 4469
02/07/2020,21:18,74.46,74.5,74.45,74.49, 5295
02/07/2020,21:19,74.5,74.52,74.44,74.47, 4463
02/07/2020,21:20,74.46,74.48,74.42,74.42, 2507
02/07/2020,21:21,74.4,74.48,74.38,74.45, 5697
02/07/2020,21:22,74.43,74.47,74.43,74.44, 1699
02/07/2020,21:23,74.43,74.48,74.4,74.4, 5675
02/07/2020,21:24,74.36,74.37,74.3,74.3, 9434
02/07/2020,21:25,74.32,74.38,74.31,74.38, 1610
02/07/2020,21:26,74.4,74.44,74.4,74.42, 1692
02/07/2020,21:27,74.42,74.44,74.38,74.38, 3857
02/07/2020,21:28,74.36,74.43,74.34,74.37, 9608
02/07/2020,21:29,74.37,74.48,74.37,74.43, 3528
02/07/2020,21:30,74.41,74.49,74.41,74.45, 11655
02/07/2020,21:31,74.41,74.41,74.36,74.37, 7400
02/07/2020,21:32,74.38,74.4,74.35,74.4, 4839
02/07/2020,21:33,74.39,74.41,74.34,74.41, 2411
02/07/2020,21:34,74.41,74.42,74.33,74.38, 10506
02/07/2020,21:35,74.36,74.41,74.32,74.38, 5029
02/07/2020,21:36,74.38,74.42,74.36,74.42, 1679
02/07/2020,21:37,74.43,74.49,74.43,74.48, 5007
02/07/2020,21:38,74.46,74.5,74.45,74.45, 2920
02/07/2020,21:39,74.43,74.44,74.37,74.37, 7127
02/07/2020,21:40,74.33,74.34,74.29,74.29, 1957
02/07/2020,21:41,74.3,74.36,74.3,74.33, 5426
02/07/2020,21:42,74.33,74.33,74.25,74.25, 3680
02/07/2020,21:43,74.27,74.37,74.27,74.32, 6451
02/07/2020,21:44,74.31,74.34,74.3,74.32, 5439
02/07/2020,21:45,74.32,74.38,74.31,74.38, 3371
02/07/2020,21:46,74.37,74.39,74.35,74.37, 4167
02/07/2020,21:47,74.38,74.4,74.37,74.4, 5306
02/07/2020,21:48,74.41,74.43,74.37,74.38, 13688
02/07/2020,21:49,74.39,74.39,74.35,74.37, 8122
02/07/2020,21:50,74.38,74.49,74.38,74.43, 15644
02/07/2020,21:51,74.42,74.44,74.39,74.42, 12169
02/07/2020,21:52,74.44,74.51,74.41,74.43, 10900
02/07/2020,21:53,74.42,74.44,74.35,74.36, 17763
02/07/2020,21:54,74.36,74.36,74.31,74.34, 11343
02/07/2020,21:55,74.35,74.35,74.26,74.28, 9504
02/07/2020,21:56,74.28,74.29,74.23,74.27, 8589
02/07/2020,21:57,74.26,74.45,74.26,74.45, 14585
02/07/2020,21:58,74.48,74.5,74.43,74.45, 19867
02/07/2020,21:59,74.47,74.5,74.44,74.45, 15449
02/07/2020,22:00,74.46,74.47,74.44,74.44, 19385
02/07/2020,22:01,74.45,74.5,74.33,74.35, 63169
02/07/2020,22:01,74.35,74.35,74.35,74.35, 231576
02/10/2020,15:31,73.79,73.8,73.68,73.74, 2414
02/10/2020,15:32,73.76,73.81,73.68,73.68, 5574
02/10/2020,15:33,73.75,73.8,73.59,73.7, 8001
02/10/2020,15:34,73.62,73.86,73.62,73.79, 6097
02/10/2020,15:35,73.84,73.97,73.8,73.91, 2605
02/10/2020,15:36,73.96,73.96,73.76,73.76, 4055
02/10/2020,15:37,73.76,73.84,73.69,73.69, 4247
02/10/2020,15:38,73.7,73.84,73.62,73.73, 4430
02/10/2020,15:39,73.78,73.94,73.78,73.85, 6737
02/10/2020,15:40,73.89,73.89,73.75,73.79, 1839
02/10/2020,15:41,73.79,73.87,73.77,73.82, 2900
02/10/2020,15:42,73.79,73.79,73.65,73.78, 900
02/10/2020,15:43,73.78,73.78,73.63,73.69, 2635
02/10/2020,15:44,73.74,73.78,73.65,73.76, 3900
02/10/2020,15:45,73.76,73.76,73.58,73.71, 3909
02/10/2020,15:46,73.73,73.83,73.51,73.51, 3705
02/10/2020,15:47,73.56,73.65,73.44,73.44, 4800
02/10/2020,15:48,73.46,73.55,73.44,73.52, 6113
02/10/2020,15:49,73.49,73.66,73.48,73.64, 5905
02/10/2020,15:50,73.63,73.66,73.53,73.53, 5281
02/10/2020,15:51,73.49,73.6,73.43,73.6, 8386
02/10/2020,15:52,73.59,73.6,73.56,73.58, 2185
02/10/2020,15:53,73.59,73.64,73.56,73.58, 1901
02/10/2020,15:54,73.57,73.63,73.56,73.58, 4746
02/10/2020,15:55,73.6,73.67,73.51,73.66, 4364
02/10/2020,15:56,73.67,73.68,73.59,73.63, 2500
02/10/2020,15:57,73.62,73.76,73.62,73.7, 4905
02/10/2020,15:58,73.73,73.78,73.7,73.72, 2800
02/10/2020,15:59,73.72,73.78,73.68,73.73, 7596
02/10/2020,16:00,73.8,73.8,73.72,73.75, 1200
02/10/2020,16:01,73.71,73.91,73.7,73.83, 5217
02/10/2020,16:02,73.88,73.88,73.84,73.87, 11300
02/10/2020,16:03,73.84,73.88,73.79,73.79, 22778
02/10/2020,16:04,73.82,73.93,73.8,73.9, 1800
02/10/2020,16:05,73.92,73.95,73.88,73.9, 4200
02/10/2020,16:06,73.87,73.96,73.87,73.9, 2595
02/10/2020,16:07,73.9,73.98,73.87,73.9, 6193
02/10/2020,16:08,73.93,73.93,73.84,73.85, 1322
02/10/2020,16:09,73.84,73.87,73.79,73.79, 900
02/10/2020,16:10,73.78,73.85,73.73,73.85, 2299
02/10/2020,16:11,73.85,73.85,73.76,73.79, 2388
02/10/2020,16:12,73.81,73.95,73.81,73.92, 2719
02/10/2020,16:13,73.95,73.97,73.8,73.8, 2503
02/10/2020,16:14,73.77,73.8,73.75,73.77, 3540
02/10/2020,16:15,73.77,73.87,73.77,73.82, 3029
02/10/2020,16:16,73.84,73.84,73.81,73.81, 1701
02/10/2020,16:17,73.8,73.81,73.75,73.75, 2125
02/10/2020,16:18,73.78,73.85,73.78,73.8, 2838
02/10/2020,16:19,73.8,73.85,73.8,73.81, 2612
02/10/2020,16:20,73.84,73.84,73.73,73.75, 3313
02/10/2020,16:21,73.8,73.81,73.76,73.76, 1600
02/10/2020,16:22,73.75,73.75,73.66,73.69, 1437
02/10/2020,16:23,73.7,73.74,73.7,73.7, 1601
02/10/2020,16:24,73.69,73.69,73.6,73.6, 900
02/10/2020,16:25,73.63,73.63,73.5,73.58, 2248
02/10/2020,16:26,73.55,73.63,73.55,73.57, 4437
02/10/2020,16:27,73.57,73.6,73.52,73.59, 1800
02/10/2020,16:28,73.58,73.64,73.56,73.56, 3231
02/10/2020,16:29,73.53,73.53,73.47,73.48, 2036
02/10/2020,16:30,73.49,73.51,73.44,73.44, 3517
02/10/2020,16:31,73.46,73.46,73.35,73.41, 2453
02/10/2020,16:32,73.43,73.43,73.37,73.37, 600
02/10/2020,16:33,73.39,73.54,73.39,73.54, 3084
02/10/2020,16:34,73.52,73.53,73.49,73.52, 1375
02/10/2020,16:35,73.54,73.57,73.51,73.52, 1050
02/10/2020,16:36,73.56,73.6,73.53,73.57, 5796
02/10/2020,16:37,73.58,73.64,73.58,73.59, 4985
02/10/2020,16:38,73.56,73.56,73.51,73.53, 1800
02/10/2020,16:39,73.53,73.6,73.53,73.6, 1804
02/10/2020,16:40,73.62,73.63,73.59,73.62, 2069
02/10/2020,16:41,73.63,73.65,73.6,73.63, 4090
02/10/2020,16:42,73.66,73.69,73.66,73.69, 5521
02/10/2020,16:43,73.68,73.7,73.67,73.69, 2286
02/10/2020,16:44,73.7,73.73,73.67,73.72, 2335
02/10/2020,16:45,73.74,73.74,73.67,73.67, 1210
02/10/2020,16:46,73.65,73.73,73.65,73.69, 2799
02/10/2020,16:47,73.72,73.74,73.69,73.69, 2000
02/10/2020,16:48,73.61,73.68,73.61,73.66, 2473
02/10/2020,16:49,73.68,73.79,73.68,73.77, 2791
02/10/2020,16:50,73.78,74.03,73.76,74.02, 5372
02/10/2020,16:51,73.99,74.04,73.97,73.97, 1647
02/10/2020,16:52,74.03,74.12,74.03,74.05, 2800
02/10/2020,16:53,74.05,74.06,73.99,73.99, 2014
02/10/2020,16:54,73.98,74.02,73.97,73.97, 2500
02/10/2020,16:55,74,74.02,73.98,74.02, 1000
02/10/2020,16:56,74,74.06,74,74, 1700
02/10/2020,16:57,74,74.01,73.94,73.94, 1556
02/10/2020,16:58,73.91,74.02,73.91,74.01, 1309
02/10/2020,16:59,74,74,73.97,73.99, 1749
02/10/2020,17:00,73.97,74.03,73.97,74.03, 3457
02/10/2020,17:01,74.02,74.06,74,74.01, 3424
02/10/2020,17:02,74,74.1,74,74.05, 3575
02/10/2020,17:03,74.02,74.09,74.02,74.04, 1600
02/10/2020,17:04,74.08,74.11,74.07,74.11, 2403
02/10/2020,17:05,74.1,74.14,74.09,74.1, 3504
02/10/2020,17:06,74.1,74.1,74.03,74.06, 3873
02/10/2020,17:07,74.05,74.11,73.99,73.99, 3139
02/10/2020,17:08,74,74.02,73.91,73.91, 5000
02/10/2020,17:09,73.91,73.94,73.89,73.93, 2435
02/10/2020,17:10,73.88,73.93,73.87,73.91, 2611
02/10/2020,17:11,73.91,73.94,73.89,73.94, 1860
02/10/2020,17:12,73.93,73.95,73.9,73.9, 6505
02/10/2020,17:13,73.87,73.89,73.87,73.87, 900
02/10/2020,17:14,73.87,73.88,73.85,73.87, 805
02/10/2020,17:15,73.87,73.9,73.87,73.9, 900
02/10/2020,17:16,73.9,73.95,73.9,73.95, 1874
02/10/2020,17:17,73.93,73.95,73.92,73.93, 5663
02/10/2020,17:18,73.94,73.95,73.9,73.92, 2130
02/10/2020,17:19,73.91,73.92,73.9,73.9, 535
02/10/2020,17:20,73.91,73.91,73.85,73.85, 2748
02/10/2020,17:21,73.78,73.79,73.72,73.72, 1400
02/10/2020,17:22,73.75,73.83,73.7,73.7, 3474
02/10/2020,17:23,73.71,73.73,73.68,73.7, 8068
02/10/2020,17:24,73.69,73.69,73.64,73.66, 2343
02/10/2020,17:25,73.65,73.69,73.65,73.69, 1200
02/10/2020,17:26,73.7,73.7,73.67,73.7, 1169
02/10/2020,17:27,73.65,73.65,73.64,73.65, 606
02/10/2020,17:28,73.62,73.64,73.58,73.58, 3214
02/10/2020,17:29,73.59,73.65,73.59,73.65, 2870
02/10/2020,17:30,73.62,73.62,73.56,73.59, 2834
02/10/2020,17:31,73.61,73.66,73.61,73.66, 1883
02/10/2020,17:32,73.65,73.68,73.61,73.63, 4013
02/10/2020,17:33,73.63,73.64,73.62,73.64, 1600
02/10/2020,17:34,73.62,73.63,73.59,73.62, 3473
02/10/2020,17:35,73.64,73.64,73.61,73.62, 7681
02/10/2020,17:36,73.61,73.61,73.53,73.55, 2285
02/10/2020,17:37,73.58,73.6,73.57,73.6, 1300
02/10/2020,17:38,73.6,73.65,73.6,73.65, 960
02/10/2020,17:39,73.65,73.65,73.54,73.54, 1900
02/10/2020,17:40,73.54,73.57,73.54,73.57, 2281
02/10/2020,17:41,73.53,73.53,73.47,73.48, 2050
02/10/2020,17:42,73.47,73.52,73.47,73.51, 5400
02/10/2020,17:43,73.52,73.52,73.5,73.5, 3509
02/10/2020,17:44,73.52,73.57,73.51,73.53, 2011
02/10/2020,17:45,73.52,73.54,73.51,73.53, 1900
02/10/2020,17:46,73.58,73.65,73.57,73.62, 4640
02/10/2020,17:47,73.61,73.63,73.6,73.6, 3313
02/10/2020,17:48,73.61,73.61,73.6,73.6, 801
02/10/2020,17:49,73.59,73.61,73.58,73.61, 1882
02/10/2020,17:50,73.61,73.62,73.6,73.62, 658
02/10/2020,17:51,73.63,73.63,73.59,73.59, 1500
02/10/2020,17:52,73.59,73.59,73.53,73.54, 3000
02/10/2020,17:53,73.59,73.6,73.52,73.52, 1320
02/10/2020,17:54,73.51,73.51,73.41,73.41, 1748
02/10/2020,17:55,73.43,73.43,73.42,73.43, 2100
02/10/2020,17:56,73.42,73.43,73.37,73.41, 5466
02/10/2020,17:57,73.4,73.43,73.4,73.43, 477
02/10/2020,17:58,73.4,73.46,73.4,73.46, 2319
02/10/2020,17:59,73.46,73.46,73.39,73.41, 3010
02/10/2020,18:00,73.41,73.44,73.41,73.41, 3223
02/10/2020,18:01,73.39,73.39,73.32,73.32, 4408
02/10/2020,18:02,73.32,73.36,73.3,73.36, 2161
02/10/2020,18:03,73.37,73.43,73.37,73.43, 2417
02/10/2020,18:04,73.42,73.43,73.4,73.4, 1701
02/10/2020,18:05,73.4,73.41,73.32,73.34, 3164
02/10/2020,18:06,73.36,73.38,73.34,73.38, 1422
02/10/2020,18:07,73.36,73.38,73.36,73.38, 200
02/10/2020,18:08,73.39,73.39,73.35,73.35, 1316
02/10/2020,18:09,73.35,73.37,73.35,73.37, 800
02/10/2020,18:10,73.36,73.36,73.32,73.33, 4381
02/10/2020,18:11,73.32,73.35,73.31,73.35, 1358
02/10/2020,18:12,73.34,73.35,73.34,73.35, 1000
02/10/2020,18:13,73.36,73.39,73.34,73.39, 2491
02/10/2020,18:14,73.39,73.43,73.39,73.41, 1349
02/10/2020,18:15,73.42,73.44,73.39,73.39, 1300
02/10/2020,18:16,73.38,73.38,73.33,73.33, 1102
02/10/2020,18:17,73.31,73.36,73.31,73.36, 1533
02/10/2020,18:18,73.36,73.38,73.35,73.35, 1500
02/10/2020,18:19,73.35,73.36,73.34,73.35, 1100
02/10/2020,18:20,73.36,73.37,73.36,73.37, 1792
02/10/2020,18:21,73.36,73.37,73.34,73.34, 1637
02/10/2020,18:22,73.32,73.38,73.31,73.38, 4599
02/10/2020,18:23,73.37,73.37,73.33,73.33, 800
02/10/2020,18:24,73.34,73.34,73.31,73.31, 1600
02/10/2020,18:25,73.32,73.33,73.28,73.29, 2751
02/10/2020,18:26,73.31,73.32,73.3,73.32, 2599
02/10/2020,18:27,73.33,73.4,73.33,73.36, 3401
02/10/2020,18:28,73.36,73.39,73.36,73.39, 1100
02/10/2020,18:29,73.4,73.45,73.4,73.45, 3500
02/10/2020,18:30,73.46,73.47,73.42,73.46, 2670
02/10/2020,18:31,73.44,73.44,73.43,73.43, 400
02/10/2020,18:32,73.43,73.43,73.41,73.42, 2300
02/10/2020,18:33,73.43,73.43,73.42,73.43, 1103
02/10/2020,18:34,73.42,73.42,73.36,73.36, 3397
02/10/2020,18:35,73.35,73.35,73.34,73.35, 2700
02/10/2020,18:36,73.33,73.33,73.31,73.33, 2400
02/10/2020,18:37,73.32,73.32,73.28,73.29, 1500
02/10/2020,18:38,73.28,73.28,73.23,73.23, 3875
02/10/2020,18:39,73.24,73.33,73.24,73.31, 3850
02/10/2020,18:40,73.33,73.33,73.3,73.3, 1025
02/10/2020,18:41,73.33,73.33,73.3,73.3, 622
02/10/2020,18:42,73.3,73.31,73.27,73.27, 3335
02/10/2020,18:43,73.28,73.3,73.28,73.29, 2690
02/10/2020,18:44,73.3,73.3,73.25,73.25, 404
02/10/2020,18:45,73.23,73.25,73.23,73.24, 3041
02/10/2020,18:46,73.25,73.25,73.18,73.18, 7219
02/10/2020,18:47,73.19,73.22,73.19,73.22, 1100
02/10/2020,18:48,73.21,73.24,73.21,73.24, 1000
02/10/2020,18:49,73.24,73.24,73.21,73.21, 2376
02/10/2020,18:50,73.23,73.23,73.21,73.21, 600
02/10/2020,18:51,73.19,73.22,73.18,73.21, 1800
02/10/2020,18:52,73.23,73.25,73.23,73.25, 300
02/10/2020,18:53,73.25,73.31,73.25,73.28, 3304
02/10/2020,18:54,73.27,73.27,73.27,73.27, 100
02/10/2020,18:55,73.26,73.28,73.24,73.28, 2000
02/10/2020,18:56,73.27,73.27,73.25,73.25, 400
02/10/2020,18:57,73.26,73.29,73.25,73.28, 2660
02/10/2020,18:58,73.25,73.28,73.24,73.24, 2460
02/10/2020,18:59,73.25,73.27,73.22,73.22, 2410
02/10/2020,19:00,73.2,73.2,73.13,73.15, 1737
02/10/2020,19:01,73.14,73.14,73.14,73.14, 200
02/10/2020,19:02,73.14,73.2,73.14,73.18, 2400
02/10/2020,19:03,73.2,73.26,73.2,73.23, 2519
02/10/2020,19:04,73.21,73.25,73.21,73.21, 3627
02/10/2020,19:05,73.2,73.24,73.17,73.23, 2599
02/10/2020,19:06,73.23,73.24,73.23,73.24, 300
02/10/2020,19:07,73.24,73.24,73.17,73.17, 1800
02/10/2020,19:08,73.18,73.2,73.17,73.19, 2201
02/10/2020,19:09,73.18,73.22,73.18,73.22, 2000
02/10/2020,19:10,73.24,73.25,73.23,73.24, 1229
02/10/2020,19:11,73.23,73.24,73.22,73.23, 2091
02/10/2020,19:12,73.25,73.28,73.25,73.27, 846
02/10/2020,19:13,73.26,73.28,73.26,73.28, 575
02/10/2020,19:14,73.28,73.28,73.26,73.28, 600
02/10/2020,19:15,73.27,73.28,73.27,73.27, 2400
02/10/2020,19:16,73.28,73.28,73.28,73.28, 400
02/10/2020,19:17,73.26,73.26,73.25,73.25, 814
02/10/2020,19:18,73.25,73.29,73.23,73.28, 3808
02/10/2020,19:19,73.28,73.3,73.26,73.26, 1000
02/10/2020,19:20,73.26,73.31,73.26,73.28, 1400
02/10/2020,19:21,73.28,73.28,73.25,73.25, 725
02/10/2020,19:22,73.24,73.27,73.23,73.24, 2200
02/10/2020,19:23,73.27,73.28,73.27,73.27, 1361
02/10/2020,19:24,73.27,73.27,73.25,73.25, 2200
02/10/2020,19:25,73.24,73.24,73.22,73.22, 1915
02/10/2020,19:26,73.19,73.22,73.18,73.22, 2000
02/10/2020,19:27,73.21,73.21,73.18,73.18, 2700
02/10/2020,19:28,73.2,73.23,73.17,73.18, 2601
02/10/2020,19:29,73.2,73.22,73.18,73.19, 1522
02/10/2020,19:30,73.18,73.18,73.15,73.15, 600
02/10/2020,19:31,73.15,73.17,73.14,73.17, 4129
02/10/2020,19:32,73.17,73.17,73.16,73.16, 700
02/10/2020,19:33,73.15,73.17,73.14,73.15, 2750
02/10/2020,19:34,73.17,73.24,73.17,73.24, 1000
02/10/2020,19:35,73.22,73.24,73.22,73.22, 1000
02/10/2020,19:36,73.21,73.21,73.19,73.2, 1103
02/10/2020,19:37,73.21,73.22,73.18,73.18, 900
02/10/2020,19:38,73.18,73.18,73.17,73.18, 400
02/10/2020,19:39,73.18,73.21,73.17,73.18, 2572
02/10/2020,19:40,73.17,73.17,73.14,73.14, 800
02/10/2020,19:41,73.15,73.15,73.13,73.14, 2134
02/10/2020,19:42,73.15,73.17,73.14,73.17, 2229
02/10/2020,19:43,73.18,73.18,73.16,73.16, 1051
02/10/2020,19:44,73.15,73.15,73.14,73.14, 401
02/10/2020,19:45,73.13,73.16,73.12,73.16, 4824
02/10/2020,19:46,73.16,73.18,73.14,73.14, 2414
02/10/2020,19:47,73.13,73.14,73.11,73.13, 4036
02/10/2020,19:48,73.13,73.16,73.13,73.14, 1534
02/10/2020,19:49,73.13,73.15,73.13,73.14, 1000
02/10/2020,19:50,73.15,73.15,73.12,73.12, 1521
02/10/2020,19:51,73.13,73.16,73.12,73.13, 3091
02/10/2020,19:52,73.12,73.14,73.1,73.14, 2613
02/10/2020,19:53,73.14,73.16,73.12,73.12, 1501
02/10/2020,19:54,73.1,73.11,73.1,73.11, 1259
02/10/2020,19:55,73.1,73.1,73.09,73.1, 1020
02/10/2020,19:56,73.1,73.16,73.1,73.16, 6145
02/10/2020,19:57,73.15,73.15,73.09,73.11, 2890
02/10/2020,19:58,73.13,73.13,73.11,73.11, 1105
02/10/2020,19:59,73.12,73.12,73.1,73.1, 1300
02/10/2020,20:00,73.1,73.15,73.1,73.13, 2711
02/10/2020,20:01,73.12,73.12,73.09,73.09, 1574
02/10/2020,20:02,73.08,73.11,73.08,73.11, 1900
02/10/2020,20:03,73.11,73.15,73.11,73.14, 1951
02/10/2020,20:04,73.14,73.14,73.09,73.11, 2397
02/10/2020,20:05,73.1,73.11,73.08,73.1, 3208
02/10/2020,20:06,73.09,73.12,73.09,73.09, 1855
02/10/2020,20:07,73.07,73.09,73.07,73.08, 929
02/10/2020,20:08,73.09,73.11,73.07,73.08, 5886
02/10/2020,20:09,73.07,73.1,73.07,73.08, 2961
02/10/2020,20:10,73.07,73.09,73.07,73.09, 1840
02/10/2020,20:11,73.08,73.1,73.08,73.09, 1919
02/10/2020,20:12,73.1,73.1,73.06,73.07, 3750
02/10/2020,20:13,73.07,73.11,73.06,73.11, 3509
02/10/2020,20:14,73.11,73.14,73.11,73.13, 4702
02/10/2020,20:15,73.15,73.17,73.15,73.16, 2902
02/10/2020,20:16,73.16,73.26,73.16,73.26, 3400
02/10/2020,20:17,73.26,73.33,73.26,73.3, 5922
02/10/2020,20:18,73.3,73.34,73.3,73.34, 700
02/10/2020,20:19,73.35,73.39,73.33,73.39, 3139
02/10/2020,20:20,73.4,73.47,73.4,73.44, 8000
02/10/2020,20:21,73.43,73.46,73.43,73.46, 1859
02/10/2020,20:22,73.45,73.48,73.42,73.45, 3663
02/10/2020,20:23,73.45,73.47,73.32,73.37, 12666
02/10/2020,20:24,73.36,73.44,73.36,73.44, 4631
02/10/2020,20:25,73.41,73.43,73.4,73.4, 1900
02/10/2020,20:26,73.4,73.42,73.4,73.4, 2731
02/10/2020,20:27,73.4,73.44,73.4,73.44, 1813
02/10/2020,20:28,73.45,73.51,73.45,73.5, 3200
02/10/2020,20:29,73.49,73.52,73.47,73.52, 1201
02/10/2020,20:30,73.53,73.59,73.52,73.56, 4376
02/10/2020,20:31,73.57,73.61,73.57,73.59, 2519
02/10/2020,20:32,73.59,73.62,73.58,73.61, 1606
02/10/2020,20:33,73.57,73.59,73.57,73.58, 1900
02/10/2020,20:34,73.59,73.59,73.55,73.56, 4915
02/10/2020,20:35,73.55,73.56,73.55,73.56, 2715
02/10/2020,20:36,73.57,73.57,73.56,73.56, 1432
02/10/2020,20:37,73.56,73.56,73.51,73.51, 1530
02/10/2020,20:38,73.5,73.5,73.43,73.44, 2907
02/10/2020,20:39,73.42,73.42,73.4,73.4, 2700
02/10/2020,20:40,73.4,73.47,73.4,73.47, 5193
02/10/2020,20:41,73.46,73.46,73.44,73.45, 799
02/10/2020,20:42,73.44,73.47,73.44,73.46, 1500
02/10/2020,20:43,73.47,73.48,73.44,73.44, 2100
02/10/2020,20:44,73.43,73.45,73.43,73.45, 2046
02/10/2020,20:45,73.46,73.46,73.43,73.45, 1574
02/10/2020,20:46,73.45,73.47,73.44,73.44, 2507
02/10/2020,20:47,73.44,73.44,73.41,73.42, 2402
02/10/2020,20:48,73.41,73.41,73.38,73.38, 1604
02/10/2020,20:49,73.38,73.38,73.36,73.38, 1757
02/10/2020,20:50,73.4,73.46,73.4,73.45, 2428
02/10/2020,20:51,73.44,73.44,73.39,73.39, 800
02/10/2020,20:52,73.39,73.41,73.37,73.37, 2864
02/10/2020,20:53,73.37,73.37,73.33,73.36, 4885
02/10/2020,20:54,73.36,73.39,73.34,73.39, 5008
02/10/2020,20:55,73.38,73.38,73.34,73.35, 2305
02/10/2020,20:56,73.35,73.35,73.32,73.32, 2230
02/10/2020,20:57,73.31,73.36,73.31,73.36, 5068
02/10/2020,20:58,73.37,73.37,73.36,73.37, 1375
02/10/2020,20:59,73.38,73.4,73.37,73.38, 4400
02/10/2020,21:00,73.38,73.42,73.38,73.42, 1216
02/10/2020,21:01,73.41,73.42,73.39,73.4, 1738
02/10/2020,21:02,73.4,73.44,73.4,73.43, 2603
02/10/2020,21:03,73.43,73.45,73.43,73.43, 1700
02/10/2020,21:04,73.41,73.42,73.38,73.39, 1323
02/10/2020,21:05,73.38,73.44,73.38,73.44, 2506
02/10/2020,21:06,73.45,73.47,73.45,73.46, 1100
02/10/2020,21:07,73.45,73.46,73.45,73.45, 4820
02/10/2020,21:08,73.46,73.48,73.45,73.47, 3041
02/10/2020,21:09,73.46,73.46,73.45,73.46, 8949
02/10/2020,21:10,73.45,73.46,73.44,73.46, 8609
02/10/2020,21:11,73.46,73.5,73.46,73.49, 4727
02/10/2020,21:12,73.49,73.54,73.48,73.54, 4340
02/10/2020,21:13,73.54,73.57,73.54,73.57, 2300
02/10/2020,21:14,73.59,73.62,73.59,73.6, 8007
02/10/2020,21:15,73.62,73.62,73.56,73.57, 2580
02/10/2020,21:16,73.56,73.57,73.54,73.54, 800
02/10/2020,21:17,73.51,73.53,73.5,73.5, 3100
02/10/2020,21:18,73.5,73.54,73.49,73.53, 7704
02/10/2020,21:19,73.55,73.56,73.53,73.54, 3657
02/10/2020,21:20,73.56,73.59,73.54,73.57, 9104
02/10/2020,21:21,73.57,73.57,73.56,73.57, 1700
02/10/2020,21:22,73.57,73.58,73.57,73.58, 1835
02/10/2020,21:23,73.58,73.61,73.58,73.61, 3276
02/10/2020,21:24,73.62,73.63,73.6,73.61, 13441
02/10/2020,21:25,73.62,73.65,73.62,73.64, 6612
02/10/2020,21:26,73.65,73.67,73.64,73.65, 3775
02/10/2020,21:27,73.65,73.65,73.62,73.63, 14750
02/10/2020,21:28,73.62,73.63,73.59,73.59, 4752
02/10/2020,21:29,73.59,73.65,73.59,73.65, 1200
02/10/2020,21:30,73.64,73.64,73.61,73.63, 17387
02/10/2020,21:31,73.63,73.67,73.61,73.66, 9638
02/10/2020,21:32,73.64,73.67,73.61,73.63, 9617
02/10/2020,21:33,73.63,73.64,73.62,73.64, 3706
02/10/2020,21:34,73.64,73.66,73.64,73.66, 7628
02/10/2020,21:35,73.67,73.71,73.65,73.65, 16490
02/10/2020,21:36,73.66,73.71,73.65,73.67, 6997
02/10/2020,21:37,73.67,73.68,73.65,73.65, 5370
02/10/2020,21:38,73.65,73.65,73.58,73.6, 6149
02/10/2020,21:39,73.59,73.59,73.54,73.56, 4456
02/10/2020,21:40,73.56,73.57,73.53,73.54, 1710
02/10/2020,21:41,73.53,73.56,73.51,73.56, 7175
02/10/2020,21:42,73.56,73.58,73.55,73.55, 5363
02/10/2020,21:43,73.55,73.58,73.54,73.57, 5496
02/10/2020,21:44,73.58,73.6,73.58,73.6, 1000
02/10/2020,21:45,73.6,73.62,73.59,73.62, 4196
02/10/2020,21:46,73.62,73.63,73.57,73.6, 7623
02/10/2020,21:47,73.57,73.64,73.56,73.63, 11177
02/10/2020,21:48,73.61,73.64,73.61,73.63, 4013
02/10/2020,21:49,73.63,73.64,73.62,73.63, 13671
02/10/2020,21:50,73.62,73.65,73.62,73.63, 10582
02/10/2020,21:51,73.64,73.7,73.64,73.67, 21174
02/10/2020,21:52,73.66,73.66,73.62,73.63, 10298
02/10/2020,21:53,73.62,73.65,73.6,73.65, 13270
02/10/2020,21:54,73.65,73.75,73.64,73.74, 11294
02/10/2020,21:55,73.74,73.74,73.69,73.74, 22460
02/10/2020,21:56,73.74,73.76,73.67,73.76, 22431
02/10/2020,21:57,73.76,73.8,73.75,73.79, 33474
02/10/2020,21:58,73.79,73.87,73.79,73.83, 30211
02/10/2020,21:59,73.81,73.84,73.77,73.78, 55449
02/10/2020,22:00,73.77,73.83,73.77,73.82, 134939
02/10/2020,22:01,73.82,73.85,73.69,73.7, 125012
02/10/2020,22:02,73.7,73.7,73.7,73.7, 487143
02/11/2020,15:31,75.13,75.2,75.07,75.15, 33024
02/11/2020,15:32,75.17,75.37,75.07,75.1, 9250
02/11/2020,15:33,75.16,75.4,75.16,75.4, 2614
02/11/2020,15:34,75.37,75.41,75.18,75.27, 10996
02/11/2020,15:35,75.22,75.24,74.9,75.18, 9894
02/11/2020,15:36,75.12,75.18,74.94,75.01, 7721
02/11/2020,15:37,74.97,75.15,74.93,75.12, 121440
02/11/2020,15:38,75.06,75.11,74.77,74.83, 2003
02/11/2020,15:39,74.84,75.07,74.8,74.8, 62619
02/11/2020,15:40,74.8,74.84,74.73,74.77, 2796
02/11/2020,15:41,74.71,74.85,74.62,74.85, 8591
02/11/2020,15:42,74.83,74.87,74.72,74.84, 8213
02/11/2020,15:43,74.87,75.07,74.76,74.99, 6187
02/11/2020,15:44,75.01,75.12,74.97,75.04, 5181
02/11/2020,15:45,75.04,75.05,74.96,75.01, 5596
02/11/2020,15:46,74.98,75.1,74.98,75.05, 1928
02/11/2020,15:47,75.05,75.21,75.02,75.09, 16788
02/11/2020,15:48,75.1,75.19,75.09,75.14, 2522
02/11/2020,15:49,75.17,75.38,75.17,75.34, 4081
02/11/2020,15:50,75.33,75.38,75.24,75.26, 4000
02/11/2020,15:51,75.26,75.34,75.13,75.16, 8326
02/11/2020,15:52,75.11,75.15,75.04,75.09, 13900
02/11/2020,15:53,75.07,75.07,74.96,75.02, 2224
02/11/2020,15:54,75.11,75.17,75.07,75.11, 3580
02/11/2020,15:55,75.09,75.09,75.02,75.03, 1912
02/11/2020,15:56,75,75.08,74.97,75.07, 6238
02/11/2020,15:57,75.07,75.14,75,75.08, 3189
02/11/2020,15:58,75.03,75.09,75,75.05, 1756
02/11/2020,15:59,75.04,75.2,75.04,75.11, 2182
02/11/2020,16:00,75.02,75.06,75.02,75.04, 759
02/11/2020,16:01,75.04,75.11,75.03,75.11, 1200
02/11/2020,16:02,75.11,75.12,75.05,75.12, 300
02/11/2020,16:03,75.08,75.12,75.03,75.03, 2191
02/11/2020,16:04,75.02,75.05,74.95,75.03, 3870
02/11/2020,16:05,75.06,75.18,75.06,75.17, 22448
02/11/2020,16:06,75.14,75.3,75.14,75.25, 19144
02/11/2020,16:07,75.26,75.33,75.24,75.31, 14559
02/11/2020,16:08,75.3,75.31,75.22,75.22, 2600
02/11/2020,16:09,75.23,75.31,75.16,75.27, 3200
02/11/2020,16:10,75.27,75.31,75.19,75.26, 17082
02/11/2020,16:11,75.26,75.29,75.22,75.25, 5650
02/11/2020,16:12,75.24,75.33,75.24,75.25, 6907
02/11/2020,16:13,75.26,75.26,75.19,75.2, 10437
02/11/2020,16:14,75.19,75.33,75.18,75.31, 6652
02/11/2020,16:15,75.3,75.31,75.25,75.26, 13927
02/11/2020,16:16,75.26,75.28,75.21,75.22, 4830
02/11/2020,16:17,75.22,75.3,75.22,75.25, 2449
02/11/2020,16:18,75.24,75.24,75.15,75.24, 3955
02/11/2020,16:19,75.26,75.27,75.21,75.21, 32410
02/11/2020,16:20,75.2,75.22,75.18,75.18, 1485
02/11/2020,16:21,75.14,75.18,75.13,75.15, 5764
02/11/2020,16:22,75.16,75.16,75.07,75.09, 1200
02/11/2020,16:23,75.09,75.1,74.98,75.06, 2557
02/11/2020,16:24,75,75.01,74.98,75.01, 1000
02/11/2020,16:25,74.97,74.98,74.91,74.91, 1220
02/11/2020,16:26,74.89,74.93,74.86,74.93, 1100
02/11/2020,16:27,74.92,74.99,74.92,74.99, 2100
02/11/2020,16:28,74.94,74.95,74.94,74.95, 200
02/11/2020,16:29,74.93,74.96,74.87,74.87, 1976
02/11/2020,16:30,74.88,74.94,74.87,74.94, 1400
02/11/2020,16:31,74.96,75.06,74.96,75.01, 3000
02/11/2020,16:32,75.03,75.07,75.01,75.06, 857
02/11/2020,16:33,75.04,75.04,74.92,74.94, 2300
02/11/2020,16:34,74.96,75,74.95,75, 741
02/11/2020,16:35,75,75.03,74.94,74.94, 3404
02/11/2020,16:36,74.95,74.96,74.87,74.87, 750
02/11/2020,16:37,74.88,74.88,74.84,74.87, 828
02/11/2020,16:38,74.86,74.86,74.77,74.77, 1000
02/11/2020,16:39,74.78,74.82,74.78,74.81, 791
02/11/2020,16:40,74.84,74.84,74.8,74.8, 800
02/11/2020,16:41,74.8,74.83,74.8,74.83, 900
02/11/2020,16:42,74.86,74.86,74.78,74.78, 1600
02/11/2020,16:43,74.78,74.81,74.77,74.81, 1385
02/11/2020,16:44,74.84,74.84,74.84,74.84, 300
02/11/2020,16:45,74.86,74.87,74.83,74.84, 4669
02/11/2020,16:46,74.88,74.89,74.88,74.89, 400
02/11/2020,16:47,74.84,74.86,74.84,74.84, 500
02/11/2020,16:48,74.85,74.86,74.8,74.86, 1310
02/11/2020,16:49,74.83,74.86,74.81,74.84, 1300
02/11/2020,16:50,74.91,74.94,74.91,74.94, 300
02/11/2020,16:51,74.95,74.97,74.95,74.96, 500
02/11/2020,16:52,74.95,74.97,74.88,74.88, 2660
02/11/2020,16:53,74.84,74.86,74.83,74.86, 500
02/11/2020,16:54,74.81,74.84,74.81,74.84, 696
02/11/2020,16:55,74.84,74.9,74.84,74.9, 2320
02/11/2020,16:56,74.89,74.95,74.87,74.93, 2200
02/11/2020,16:57,74.93,74.96,74.89,74.94, 3000
02/11/2020,16:58,74.94,74.96,74.9,74.93, 2508
02/11/2020,16:59,74.93,74.93,74.9,74.91, 3113
02/11/2020,17:00,74.86,74.88,74.86,74.87, 600
02/11/2020,17:01,74.81,74.81,74.78,74.8, 1370
02/11/2020,17:02,74.8,74.88,74.8,74.87, 600
02/11/2020,17:03,74.87,74.87,74.84,74.84, 1692
02/11/2020,17:04,74.8,74.8,74.71,74.71, 900
02/11/2020,17:05,74.73,74.78,74.67,74.67, 2659
02/11/2020,17:06,74.62,74.65,74.61,74.65, 1759
02/11/2020,17:07,74.66,74.66,74.59,74.59, 813
02/11/2020,17:08,74.61,74.61,74.56,74.56, 403
02/11/2020,17:09,74.58,74.58,74.5,74.51, 4482
02/11/2020,17:10,74.51,74.52,74.4,74.46, 21919
02/11/2020,17:11,74.48,74.58,74.48,74.56, 3500
02/11/2020,17:12,74.54,74.54,74.5,74.52, 1300
02/11/2020,17:13,74.53,74.57,74.49,74.54, 900
02/11/2020,17:14,74.54,74.6,74.53,74.6, 1214
02/11/2020,17:15,74.59,74.61,74.51,74.51, 1500
02/11/2020,17:16,74.5,74.5,74.45,74.45, 1687
02/11/2020,17:17,74.45,74.46,74.42,74.46, 624
02/11/2020,17:18,74.52,74.6,74.52,74.6, 1100
02/11/2020,17:19,74.6,74.64,74.6,74.61, 1264
02/11/2020,17:20,74.65,74.66,74.63,74.66, 400
02/11/2020,17:21,74.62,74.67,74.62,74.63, 658
02/11/2020,17:22,74.62,74.62,74.62,74.62, 412
02/11/2020,17:23,74.61,74.64,74.59,74.59, 2194
02/11/2020,17:24,74.6,74.6,74.58,74.59, 1505
02/11/2020,17:25,74.59,74.59,74.59,74.59, 100
02/11/2020,17:26,74.56,74.58,74.55,74.56, 700
02/11/2020,17:27,74.55,74.59,74.52,74.58, 600
02/11/2020,17:28,74.56,74.59,74.56,74.59, 610
02/11/2020,17:29,74.6,74.64,74.6,74.64, 1335
02/11/2020,17:30,74.65,74.69,74.62,74.67, 1900
02/11/2020,17:31,74.68,74.68,74.58,74.58, 3700
02/11/2020,17:32,74.58,74.6,74.53,74.53, 815
02/11/2020,17:33,74.55,74.56,74.46,74.48, 2200
02/11/2020,17:34,74.46,74.52,74.44,74.44, 964
02/11/2020,17:35,74.45,74.45,74.32,74.34, 4080
02/11/2020,17:36,74.33,74.42,74.31,74.42, 2250
02/11/2020,17:37,74.44,74.44,74.37,74.39, 1240
02/11/2020,17:38,74.4,74.44,74.4,74.44, 1450
02/11/2020,17:39,74.42,74.44,74.4,74.44, 500
02/11/2020,17:40,74.42,74.43,74.41,74.43, 420
02/11/2020,17:41,74.43,74.43,74.38,74.4, 1329
02/11/2020,17:42,74.4,74.44,74.39,74.44, 1300
02/11/2020,17:43,74.44,74.55,74.42,74.55, 4244
02/11/2020,17:44,74.55,74.6,74.55,74.59, 1203
02/11/2020,17:45,74.63,74.67,74.63,74.67, 800
02/11/2020,17:46,74.7,74.71,74.64,74.67, 2835
02/11/2020,17:47,74.64,74.67,74.61,74.63, 1050
02/11/2020,17:47,74.65,74.65,74.65,74.65, 100
02/11/2020,17:49,74.68,74.68,74.65,74.67, 400
02/11/2020,17:50,74.69,74.77,74.67,74.75, 2124
02/11/2020,17:51,74.78,74.84,74.78,74.8, 900
02/11/2020,17:52,74.78,74.82,74.78,74.81, 1553
02/11/2020,17:53,74.82,74.87,74.79,74.84, 2097
02/11/2020,17:54,74.85,74.93,74.85,74.89, 4459
02/11/2020,17:55,74.85,74.86,74.82,74.84, 600
02/11/2020,17:56,74.78,74.87,74.78,74.86, 873
02/11/2020,17:57,74.86,74.86,74.82,74.84, 900
02/11/2020,17:58,74.85,74.87,74.8,74.87, 1965
02/11/2020,17:59,74.88,74.89,74.83,74.84, 2045
02/11/2020,18:00,74.83,74.83,74.75,74.75, 900
02/11/2020,18:01,74.72,74.72,74.68,74.68, 400
02/11/2020,18:02,74.7,74.84,74.7,74.84, 5218
02/11/2020,18:03,74.83,74.84,74.81,74.82, 558
02/11/2020,18:04,74.79,74.79,74.76,74.76, 1100
02/11/2020,18:05,74.74,74.8,74.74,74.78, 5426
02/11/2020,18:06,74.79,74.79,74.7,74.75, 5772
02/11/2020,18:07,74.73,74.8,74.73,74.79, 4799
02/11/2020,18:08,74.82,74.82,74.78,74.81, 1820
02/11/2020,18:09,74.84,74.86,74.83,74.86, 932
02/11/2020,18:10,74.86,74.9,74.86,74.9, 665
02/11/2020,18:11,74.87,74.88,74.85,74.88, 1204
02/11/2020,18:12,74.86,74.86,74.83,74.85, 669
02/11/2020,18:13,74.86,74.88,74.86,74.86, 2940
02/11/2020,18:14,74.85,74.85,74.84,74.84, 836
02/11/2020,18:15,74.83,74.85,74.8,74.8, 3131
02/11/2020,18:16,74.81,74.83,74.81,74.83, 700
02/11/2020,18:17,74.84,74.86,74.82,74.84, 1165
02/11/2020,18:18,74.81,74.82,74.81,74.81, 434
02/11/2020,18:19,74.79,74.83,74.79,74.82, 1400
02/11/2020,18:20,74.83,74.83,74.8,74.81, 400
02/11/2020,18:21,74.8,74.8,74.79,74.79, 700
02/11/2020,18:22,74.8,74.81,74.77,74.79, 3900
02/11/2020,18:23,74.78,74.8,74.76,74.8, 1210
02/11/2020,18:24,74.81,74.89,74.81,74.89, 2000
02/11/2020,18:25,74.87,74.87,74.86,74.87, 1900
02/11/2020,18:26,74.88,74.94,74.88,74.94, 921
02/11/2020,18:27,74.93,74.93,74.92,74.92, 400
02/11/2020,18:28,74.94,75.03,74.94,75, 5094
02/11/2020,18:29,74.99,75.03,74.99,75, 5496
02/11/2020,18:30,74.99,75.02,74.99,75, 4348
02/11/2020,18:31,75.01,75.03,75.01,75.03, 911
02/11/2020,18:32,75,75.03,75,75, 1270
02/11/2020,18:33,75.06,75.13,75.05,75.13, 3770
02/11/2020,18:34,75.12,75.14,75.1,75.1, 12192
02/11/2020,18:35,75.1,75.1,75.08,75.08, 1200
02/11/2020,18:37,75.08,75.08,74.99,75.03, 1267
02/11/2020,18:38,75.03,75.06,75.03,75.03, 900
02/11/2020,18:39,75.04,75.09,75.04,75.09, 400
02/11/2020,18:40,75.08,75.08,75.05,75.06, 1425
02/11/2020,18:41,75.07,75.09,75.05,75.05, 900
02/11/2020,18:42,75.05,75.05,74.97,74.98, 2100
02/11/2020,18:43,74.97,74.97,74.87,74.87, 2300
02/11/2020,18:44,74.85,74.93,74.83,74.93, 2455
02/11/2020,18:45,74.94,74.95,74.9,74.91, 1800
02/11/2020,18:46,74.9,74.9,74.86,74.87, 2479
02/11/2020,18:47,74.87,74.87,74.87,74.87, 100
02/11/2020,18:48,74.87,74.88,74.83,74.83, 2553
02/11/2020,18:49,74.82,74.82,74.76,74.82, 4468
02/11/2020,18:50,74.79,74.8,74.78,74.78, 1800
02/11/2020,18:51,74.79,74.84,74.76,74.84, 4254
02/11/2020,18:52,74.83,74.84,74.78,74.78, 1703
02/11/2020,18:53,74.76,74.76,74.69,74.71, 5298
02/11/2020,18:54,74.72,74.81,74.72,74.81, 3820
02/11/2020,18:55,74.88,74.91,74.82,74.9, 8104
02/11/2020,18:56,74.89,74.93,74.89,74.91, 2049
02/11/2020,18:57,74.91,74.94,74.86,74.86, 600
02/11/2020,18:58,74.84,74.88,74.84,74.86, 2894
02/11/2020,18:59,74.89,74.89,74.86,74.88, 5353
02/11/2020,19:00,74.87,74.92,74.87,74.89, 5814
02/11/2020,19:01,74.9,74.9,74.85,74.86, 1513
02/11/2020,19:02,74.84,74.85,74.82,74.82, 1237
02/11/2020,19:03,74.86,74.86,74.85,74.85, 200
02/11/2020,19:04,74.83,74.87,74.83,74.87, 600
02/11/2020,19:04,74.86,74.86,74.86,74.86, 100
02/11/2020,19:07,74.82,74.85,74.82,74.85, 2101
02/11/2020,19:08,74.84,74.84,74.8,74.83, 3050
02/11/2020,19:09,74.81,74.81,74.81,74.81, 200
02/11/2020,19:10,74.82,74.82,74.78,74.8, 1890
02/11/2020,19:11,74.83,74.85,74.83,74.85, 800
02/11/2020,19:12,74.85,74.85,74.8,74.8, 1219
02/11/2020,19:13,74.78,74.81,74.78,74.81, 500
02/11/2020,19:14,74.82,74.88,74.82,74.88, 900
02/11/2020,19:15,74.86,74.86,74.86,74.86, 396
02/11/2020,19:16,74.85,74.89,74.85,74.86, 1261
02/11/2020,19:17,74.9,74.92,74.89,74.92, 1697
02/11/2020,19:18,74.92,74.92,74.89,74.89, 509
02/11/2020,19:19,74.87,74.9,74.87,74.9, 600
02/11/2020,19:20,74.88,74.88,74.83,74.85, 900
02/11/2020,19:21,74.81,74.84,74.81,74.83, 800
02/11/2020,19:22,74.81,74.81,74.8,74.8, 1400
02/11/2020,19:23,74.81,74.81,74.79,74.81, 1400
02/11/2020,19:24,74.84,74.86,74.82,74.85, 3685
02/11/2020,19:24,74.84,74.84,74.84,74.84, 100
02/11/2020,19:26,74.85,74.86,74.85,74.86, 200
02/11/2020,19:27,74.87,74.87,74.86,74.86, 737
02/11/2020,19:28,74.84,74.86,74.81,74.81, 1507
02/11/2020,19:29,74.86,74.86,74.85,74.85, 650
02/11/2020,19:30,74.85,74.85,74.83,74.83, 725
02/11/2020,19:31,74.87,74.91,74.87,74.9, 819
