03/02/2020,15:31,104.92,105.18,104.79,105.03, 22847
03/02/2020,15:32,104.95,105.69,104.7,105.44, 5201
03/02/2020,15:32,105.16,105.16,105.16,105.16, 100
03/02/2020,15:33,105.24,105.4,105.11,105.37, 1000
03/02/2020,15:34,105.28,105.4,105.03,105.4, 3468
03/02/2020,15:35,105.42,105.52,105.27,105.29, 1869
03/02/2020,15:36,105.06,105.06,104.82,104.82, 2200
03/02/2020,15:37,104.8,105.07,104.69,104.91, 8421
03/02/2020,15:38,104.9,104.9,104.53,104.61, 6811
03/02/2020,15:39,104.6,104.97,104.6,104.95, 3378
03/02/2020,15:40,104.84,104.84,104.77,104.77, 200
03/02/2020,15:41,104.84,104.84,104.69,104.83, 20175
03/02/2020,15:47,105.08,105.15,105.08,105.15, 660
03/02/2020,15:48,105.08,105.14,104.97,105.12, 3600
03/02/2020,15:49,105.05,105.25,104.93,105.25, 11092
03/02/2020,15:50,105.29,105.29,105.12,105.23, 2651
03/02/2020,15:51,105.31,105.32,105.13,105.13, 2600
03/02/2020,15:51,105.12,105.23,105.01,105.01, 7369
03/02/2020,15:52,104.9,104.9,104.67,104.76, 1700
03/02/2020,15:53,104.7,104.77,104.69,104.77, 300
03/02/2020,15:54,104.69,104.8,104.63,104.7, 3555
03/02/2020,15:55,104.81,104.92,104.75,104.91, 2333
03/02/2020,15:56,104.8,104.8,104.75,104.75, 600
03/02/2020,15:57,104.69,104.8,104.61,104.61, 1694
03/02/2020,15:58,104.62,104.62,104.48,104.59, 3718
03/02/2020,15:59,104.55,104.72,104.55,104.69, 2585
03/02/2020,16:00,104.7,104.79,104.64,104.71, 8054
03/02/2020,16:01,104.71,104.81,104.56,104.81, 3200
03/02/2020,16:01,104.82,104.82,104.56,104.74, 4849
03/02/2020,16:02,104.74,104.86,104.62,104.62, 2720
03/02/2020,16:03,104.62,104.72,104.54,104.72, 35335
03/02/2020,16:05,104.72,104.72,104.47,104.47, 8028
03/02/2020,16:06,104.47,104.59,104.45,104.5, 3699
03/02/2020,16:07,104.46,104.54,104.21,104.3, 2962
03/02/2020,16:08,104.21,104.27,104.16,104.19, 11322
03/02/2020,16:09,104.22,104.22,104.07,104.13, 5243
03/02/2020,16:10,104.12,104.39,104.12,104.32, 4865
03/02/2020,16:11,104.3,104.34,104.19,104.3, 3590
03/02/2020,16:12,104.37,104.54,104.37,104.54, 1641
03/02/2020,16:13,104.54,104.62,104.51,104.54, 998
03/02/2020,16:14,104.61,104.85,104.61,104.85, 2936
03/02/2020,16:15,104.88,105.08,104.82,105.01, 8546
03/02/2020,16:16,105.05,105.1,104.84,104.84, 2404
03/02/2020,16:17,104.78,104.85,104.41,104.54, 4400
03/02/2020,16:18,104.51,104.69,104.48,104.54, 19934
03/02/2020,16:20,104.57,104.57,104.42,104.42, 1700
03/02/2020,16:21,104.4,104.58,104.36,104.52, 5970
03/02/2020,16:22,104.51,104.51,104.39,104.41, 4792
03/02/2020,16:23,104.34,104.37,104.26,104.26, 9109
03/02/2020,16:24,104.21,104.27,104.16,104.18, 3584
03/02/2020,16:25,104.17,104.46,104.17,104.42, 3709
03/02/2020,16:26,104.42,104.42,104.28,104.36, 3300
03/02/2020,16:27,104.4,104.55,104.4,104.54, 5098
03/02/2020,16:28,104.54,104.6,104.45,104.58, 5843
03/02/2020,16:29,104.58,104.73,104.58,104.71, 4582
03/02/2020,16:30,104.74,104.74,104.59,104.59, 1300
03/02/2020,16:31,104.63,104.64,104.53,104.62, 1822
03/02/2020,16:32,104.61,104.65,104.1,104.27, 5954
03/02/2020,16:33,104.26,104.42,104.25,104.42, 14665
03/02/2020,16:34,104.4,104.69,104.39,104.69, 5609
03/02/2020,16:35,104.73,104.73,104.62,104.67, 1919
03/02/2020,16:36,104.74,104.9,104.67,104.9, 4147
03/02/2020,16:37,104.9,104.91,104.84,104.88, 871
03/02/2020,16:38,104.97,105.15,104.97,105.01, 2999
03/02/2020,16:39,105.03,105.15,105.01,105.15, 2294
03/02/2020,16:40,105.1,105.22,105.01,105.2, 2855
03/02/2020,16:40,105.25,105.31,105.24,105.24, 2000
03/02/2020,16:41,105.34,105.34,105.23,105.23, 950
03/02/2020,16:43,105.21,105.28,105.14,105.19, 2340
03/02/2020,16:44,105.2,105.32,105.17,105.17, 4055
03/02/2020,16:45,105.16,105.16,104.96,104.96, 1276
03/02/2020,16:46,105.06,105.29,105.06,105.19, 5326
03/02/2020,16:47,105.19,105.38,105.19,105.36, 11844
03/02/2020,16:47,105.42,105.47,105.4,105.47, 1000
03/02/2020,16:48,105.52,105.52,105.42,105.46, 2042
03/02/2020,16:49,105.45,105.7,105.45,105.59, 1930
03/02/2020,16:50,105.69,105.69,105.59,105.59, 6609
03/02/2020,16:51,105.44,105.66,105.44,105.61, 1700
03/02/2020,16:52,105.63,105.83,105.6,105.83, 6226
03/02/2020,16:53,105.79,105.8,105.58,105.58, 39201
03/02/2020,16:53,105.53,105.53,105.49,105.49, 400
03/02/2020,16:54,105.47,105.51,105.24,105.41, 1831
03/02/2020,16:55,105.45,105.51,105.42,105.42, 893
03/02/2020,16:56,105.42,105.5,105.39,105.48, 1258
03/02/2020,16:57,105.45,105.47,105.4,105.41, 1886
03/02/2020,16:58,105.47,105.53,105.31,105.31, 1939
03/02/2020,16:59,105.17,105.25,105.17,105.21, 975
03/02/2020,17:00,105.18,105.18,105.01,105.01, 3010
03/02/2020,17:01,104.9,105.17,104.84,105.17, 5255
03/02/2020,17:03,105.24,105.24,105.06,105.11, 1634
03/02/2020,17:03,105.06,105.12,104.99,104.99, 1000
03/02/2020,17:05,104.98,105.16,104.95,105.12, 1395
03/02/2020,17:06,105.1,105.12,104.96,104.96, 1200
03/02/2020,17:07,104.96,105.09,104.96,105.09, 1600
03/02/2020,17:08,105.06,105.12,105.02,105.09, 500
03/02/2020,17:08,104.97,104.99,104.93,104.97, 700
03/02/2020,17:09,104.91,104.99,104.9,104.9, 700
03/02/2020,17:11,104.85,104.96,104.78,104.96, 2700
03/02/2020,17:11,104.93,105.06,104.9,105.06, 700
03/02/2020,17:12,105.08,105.4,105.06,105.4, 700
03/02/2020,17:13,105.49,105.55,105.3,105.46, 1000
03/02/2020,17:14,105.55,105.6,105.36,105.45, 2472
03/02/2020,17:15,105.38,105.57,105.38,105.57, 26100
03/02/2020,17:16,105.56,105.6,105.43,105.59, 8013
03/02/2020,17:17,105.57,105.66,105.57,105.66, 2700
03/02/2020,17:18,105.63,105.73,105.62,105.62, 801
03/02/2020,17:20,105.54,105.63,105.41,105.41, 3483
03/02/2020,17:21,105.36,105.36,105.23,105.31, 2103
03/02/2020,17:22,105.34,105.47,105.33,105.47, 1100
03/02/2020,17:23,105.5,105.59,105.38,105.55, 7487
03/02/2020,17:24,105.53,105.62,105.51,105.57, 6278
03/02/2020,17:25,105.6,105.6,105.49,105.49, 1176
03/02/2020,17:26,105.51,105.56,105.45,105.47, 7260
03/02/2020,17:27,105.49,105.64,105.49,105.55, 7439
03/02/2020,17:29,105.49,105.58,105.43,105.57, 3600
03/02/2020,17:30,105.57,105.59,105.45,105.45, 2350
03/02/2020,17:31,105.45,105.6,105.4,105.6, 4523
03/02/2020,17:32,105.56,105.6,105.45,105.55, 4222
03/02/2020,17:33,105.58,105.59,105.41,105.47, 13120
03/02/2020,17:34,105.42,105.6,105.42,105.55, 2600
03/02/2020,17:35,105.6,105.6,105.41,105.41, 3048
03/02/2020,17:36,105.44,105.46,105.26,105.45, 6193
03/02/2020,17:37,105.45,105.62,105.42,105.58, 8760
03/02/2020,17:38,105.59,105.71,105.59,105.71, 2000
03/02/2020,17:39,105.73,105.8,105.72,105.8, 1090
03/02/2020,17:40,105.83,105.93,105.78,105.93, 5706
03/02/2020,17:41,105.97,105.98,105.71,105.76, 2800
03/02/2020,17:42,105.72,105.81,105.6,105.72, 2400
03/02/2020,17:43,105.73,105.77,105.67,105.68, 1100
03/02/2020,17:44,105.69,105.73,105.6,105.7, 2900
03/02/2020,17:45,105.69,105.9,105.66,105.9, 1800
03/02/2020,17:46,105.82,105.82,105.78,105.78, 900
03/02/2020,17:47,105.72,105.83,105.69,105.83, 3243
03/02/2020,17:48,105.85,105.87,105.74,105.83, 1000
03/02/2020,17:49,105.82,105.85,105.71,105.71, 3026
03/02/2020,17:50,105.75,105.81,105.69,105.81, 2710
03/02/2020,17:51,105.77,105.82,105.76,105.76, 1726
03/02/2020,17:52,105.75,105.87,105.72,105.84, 7362
03/02/2020,17:53,105.83,106.01,105.83,105.98, 9675
03/02/2020,17:54,106.02,106.03,105.95,105.98, 7784
03/02/2020,17:55,106.01,106.2,106.01,106.09, 12444
03/02/2020,17:56,106.08,106.16,106.04,106.16, 4779
03/02/2020,17:57,106.16,106.25,106.14,106.18, 2062
03/02/2020,17:58,106.23,106.26,106.14,106.21, 1897
03/02/2020,17:59,106.21,106.31,106.2,106.29, 1759
03/02/2020,18:00,106.25,106.25,106.11,106.23, 2201
03/02/2020,18:01,106.16,106.24,106.16,106.22, 1869
03/02/2020,18:02,106.21,106.25,106.17,106.17, 1365
03/02/2020,18:03,106.16,106.27,106.16,106.22, 2540
03/02/2020,18:04,106.24,106.3,106.24,106.28, 992
03/02/2020,18:05,106.26,106.26,106.19,106.22, 7777
03/02/2020,18:06,106.19,106.23,106.16,106.2, 9157
03/02/2020,18:07,106.19,106.25,106.18,106.24, 5872
03/02/2020,18:08,106.21,106.21,106.05,106.09, 5853
03/02/2020,18:09,106.09,106.1,105.94,105.94, 3054
03/02/2020,18:10,105.99,106.01,105.97,106.01, 700
03/02/2020,18:11,106,106,105.92,105.98, 2000
03/02/2020,18:12,105.95,105.95,105.86,105.91, 1200
03/02/2020,18:13,105.96,105.97,105.93,105.94, 1153
03/02/2020,18:14,105.94,105.99,105.92,105.92, 1155
03/02/2020,18:15,105.93,106,105.93,105.93, 1671
03/02/2020,18:16,105.94,105.94,105.79,105.79, 1360
03/02/2020,18:17,105.77,105.84,105.7,105.8, 3312
03/02/2020,18:18,105.75,105.75,105.67,105.75, 2744
03/02/2020,18:19,105.73,105.77,105.73,105.73, 700
03/02/2020,18:20,105.72,105.74,105.69,105.69, 600
03/02/2020,18:21,105.67,105.72,105.64,105.72, 1798
03/02/2020,18:22,105.73,105.73,105.62,105.62, 1155
03/02/2020,18:23,105.65,105.66,105.56,105.65, 2840
03/02/2020,18:24,105.6,105.62,105.36,105.39, 2500
03/02/2020,18:25,105.43,105.43,105.34,105.34, 1447
03/02/2020,18:26,105.33,105.4,105.22,105.4, 3854
03/02/2020,18:27,105.43,105.5,105.32,105.32, 2000
03/02/2020,18:28,105.4,105.48,105.38,105.48, 1401
03/02/2020,18:29,105.51,105.63,105.51,105.63, 1560
03/02/2020,18:30,105.57,105.66,105.52,105.66, 1703
03/02/2020,18:31,105.65,105.69,105.6,105.69, 4577
03/02/2020,18:32,105.72,105.83,105.72,105.83, 3565
03/02/2020,18:33,105.8,105.83,105.76,105.81, 1517
03/02/2020,18:34,105.84,105.9,105.79,105.84, 6839
03/02/2020,18:35,105.87,105.91,105.8,105.8, 6394
03/02/2020,18:36,105.78,105.86,105.77,105.86, 2658
03/02/2020,18:37,105.86,106.02,105.86,105.93, 2958
03/02/2020,18:38,105.96,105.98,105.85,105.89, 7281
03/02/2020,18:39,105.92,105.92,105.85,105.87, 4656
03/02/2020,18:40,105.87,105.87,105.77,105.77, 2249
03/02/2020,18:41,105.74,105.91,105.74,105.88, 9902
03/02/2020,18:42,105.83,105.88,105.79,105.8, 2786
03/02/2020,18:43,105.72,105.72,105.66,105.67, 600
03/02/2020,18:44,105.64,105.73,105.64,105.7, 1100
03/02/2020,18:45,105.66,105.72,105.63,105.72, 1050
03/02/2020,18:46,105.77,105.83,105.73,105.83, 1237
03/02/2020,18:47,105.88,105.91,105.73,105.73, 9111
03/02/2020,18:48,105.79,105.79,105.71,105.73, 1231
03/02/2020,18:49,105.78,105.8,105.74,105.78, 700
03/02/2020,18:50,105.78,105.85,105.74,105.77, 1500
03/02/2020,18:51,105.82,105.85,105.78,105.85, 704
03/02/2020,18:52,105.85,105.85,105.65,105.7, 2466
03/02/2020,18:53,105.69,105.85,105.69,105.81, 2746
03/02/2020,18:54,105.82,105.89,105.82,105.87, 10928
03/02/2020,18:55,105.87,105.87,105.72,105.77, 1911
03/02/2020,18:56,105.81,105.81,105.76,105.76, 300
03/02/2020,18:57,105.73,105.78,105.72,105.78, 1450
03/02/2020,18:58,105.8,105.82,105.76,105.78, 1500
03/02/2020,18:59,105.76,105.76,105.64,105.64, 1220
03/02/2020,19:00,105.67,105.82,105.67,105.8, 963
03/02/2020,19:01,105.76,105.86,105.74,105.85, 2534
03/02/2020,19:02,105.86,105.9,105.77,105.8, 5484
03/02/2020,19:03,105.84,105.87,105.7,105.79, 3375
03/02/2020,19:04,105.79,105.81,105.69,105.69, 992
03/02/2020,19:04,105.71,105.71,105.7,105.7, 200
03/02/2020,19:06,105.8,105.86,105.69,105.69, 2497
03/02/2020,19:07,105.67,105.69,105.6,105.6, 1436
03/02/2020,19:08,105.65,105.65,105.56,105.58, 1060
03/02/2020,19:09,105.58,105.58,105.39,105.53, 6279
03/02/2020,19:10,105.54,105.65,105.54,105.64, 2184
03/02/2020,19:11,105.61,105.61,105.55,105.61, 700
03/02/2020,19:12,105.67,105.72,105.63,105.63, 1600
03/02/2020,19:13,105.59,105.59,105.49,105.5, 940
03/02/2020,19:14,105.49,105.59,105.47,105.55, 1750
03/02/2020,19:15,105.52,105.65,105.47,105.54, 2600
03/02/2020,19:16,105.58,105.64,105.51,105.51, 600
03/02/2020,19:17,105.49,105.53,105.46,105.46, 1100
03/02/2020,19:18,105.45,105.48,105.33,105.37, 3775
03/02/2020,19:19,105.35,105.38,105.3,105.38, 1574
03/02/2020,19:20,105.32,105.32,105.25,105.29, 900
03/02/2020,19:21,105.23,105.31,105.19,105.19, 4406
03/02/2020,19:22,105.14,105.21,105.14,105.19, 1000
03/02/2020,19:23,105.19,105.25,105.19,105.25, 2460
03/02/2020,19:24,105.21,105.21,105.1,105.13, 1500
03/02/2020,19:25,105.1,105.13,105.07,105.13, 1100
03/02/2020,19:26,105.11,105.2,105.11,105.2, 1000
03/02/2020,19:27,105.23,105.24,105.16,105.16, 1419
03/02/2020,19:28,105.14,105.19,104.89,105.06, 6658
03/02/2020,19:29,105.04,105.07,105,105.06, 1800
03/02/2020,19:30,105.08,105.23,105.08,105.22, 2697
03/02/2020,19:31,105.2,105.29,105.2,105.24, 3505
03/02/2020,19:32,105.23,105.23,105.11,105.17, 2845
03/02/2020,19:33,105.09,105.13,105.09,105.1, 600
03/02/2020,19:34,105.11,105.17,105.03,105.06, 3600
03/02/2020,19:35,105.07,105.26,105.07,105.26, 2297
03/02/2020,19:36,105.21,105.3,105.21,105.3, 5585
03/02/2020,19:37,105.33,105.4,105.3,105.4, 6848
03/02/2020,19:38,105.45,105.47,105.32,105.35, 6602
03/02/2020,19:38,105.32,105.4,105.3,105.34, 6399
03/02/2020,19:40,105.4,105.5,105.4,105.45, 2574
03/02/2020,19:41,105.46,105.56,105.4,105.48, 2200
03/02/2020,19:42,105.5,105.5,105.43,105.46, 4900
03/02/2020,19:43,105.5,105.53,105.44,105.44, 2400
03/02/2020,19:44,105.38,105.4,105.33,105.4, 850
03/02/2020,19:45,105.39,105.43,105.36,105.36, 2093
03/02/2020,19:46,105.34,105.4,105.32,105.39, 3769
03/02/2020,19:47,105.36,105.36,105.28,105.31, 6611
03/02/2020,19:48,105.33,105.39,105.31,105.31, 5597
03/02/2020,19:49,105.3,105.3,104.94,105, 5502
03/02/2020,19:50,104.9,105.1,104.9,105.09, 6638
03/02/2020,19:51,105.08,105.1,105.05,105.1, 1023
03/02/2020,19:52,105.16,105.21,105.15,105.19, 2468
03/02/2020,19:53,105.2,105.2,104.99,105.06, 13701
03/02/2020,19:54,105.07,105.08,104.91,104.95, 7289
03/02/2020,19:55,104.92,105.06,104.86,105.06, 3800
03/02/2020,19:56,105.09,105.12,105,105.12, 4101
03/02/2020,19:57,105.05,105.08,105.05,105.08, 289
03/02/2020,19:58,105.11,105.31,105.11,105.26, 4639
03/02/2020,19:59,105.27,105.37,105.27,105.33, 2430
03/02/2020,20:00,105.34,105.46,105.33,105.42, 9678
03/02/2020,20:01,105.43,105.58,105.43,105.58, 1900
03/02/2020,20:02,105.62,105.62,105.5,105.51, 2300
03/02/2020,20:03,105.53,105.61,105.5,105.5, 2900
03/02/2020,20:04,105.52,105.52,105.46,105.47, 1154
03/02/2020,20:05,105.46,105.46,105.36,105.4, 1100
03/02/2020,20:06,105.39,105.42,105.39,105.4, 700
03/02/2020,20:07,105.41,105.49,105.4,105.4, 1900
03/02/2020,20:08,105.37,105.54,105.37,105.54, 2441
03/02/2020,20:09,105.55,105.55,105.45,105.5, 1300
03/02/2020,20:10,105.52,105.65,105.52,105.62, 8376
03/02/2020,20:11,105.65,105.68,105.61,105.64, 3241
03/02/2020,20:12,105.66,105.68,105.64,105.64, 650
03/02/2020,20:13,105.61,105.66,105.58,105.65, 3005
03/02/2020,20:14,105.65,105.69,105.58,105.66, 6400
03/02/2020,20:15,105.66,105.67,105.61,105.61, 5811
03/02/2020,20:16,105.61,105.62,105.51,105.51, 4689
03/02/2020,20:17,105.51,105.54,105.45,105.53, 4125
03/02/2020,20:18,105.48,105.51,105.43,105.48, 879
03/02/2020,20:19,105.49,105.51,105.45,105.51, 500
03/02/2020,20:20,105.53,105.6,105.53,105.55, 2120
03/02/2020,20:21,105.55,105.57,105.51,105.57, 1394
03/02/2020,20:22,105.61,105.65,105.59,105.6, 2594
03/02/2020,20:23,105.59,105.63,105.51,105.56, 2530
03/02/2020,20:24,105.6,105.63,105.58,105.58, 2018
03/02/2020,20:25,105.56,105.56,105.47,105.56, 2405
03/02/2020,20:26,105.48,105.48,105.46,105.48, 604
03/02/2020,20:27,105.43,105.45,105.32,105.32, 1826
03/02/2020,20:28,105.38,105.46,105.36,105.45, 2956
03/02/2020,20:29,105.47,105.57,105.42,105.42, 3298
03/02/2020,20:30,105.39,105.39,105.25,105.35, 2828
03/02/2020,20:31,105.37,105.37,105.21,105.33, 1784
03/02/2020,20:32,105.33,105.33,105.21,105.24, 2565
03/02/2020,20:33,105.24,105.24,105.18,105.18, 2561
03/02/2020,20:34,105.2,105.28,105.16,105.19, 6109
03/02/2020,20:35,105.25,105.32,105.25,105.25, 5382
03/02/2020,20:36,105.19,105.19,105.05,105.09, 2132
03/02/2020,20:37,105.06,105.09,105.05,105.05, 800
03/02/2020,20:38,105.02,105.03,104.95,105.03, 7766
03/02/2020,20:39,105.05,105.05,105.03,105.03, 426
03/02/2020,20:40,105.01,105.03,104.93,105.03, 4963
03/02/2020,20:41,105.02,105.04,104.95,105.02, 2100
03/02/2020,20:43,104.84,104.87,104.81,104.87, 500
03/02/2020,20:44,104.85,104.85,104.58,104.62, 12970
03/02/2020,20:45,104.67,104.79,104.67,104.7, 1036
03/02/2020,20:46,104.73,104.8,104.64,104.68, 1215
03/02/2020,20:47,104.73,104.76,104.58,104.64, 2872
03/02/2020,20:48,104.69,104.74,104.65,104.65, 1109
03/02/2020,20:49,104.7,104.81,104.7,104.78, 964
03/02/2020,20:50,104.82,104.9,104.82,104.9, 1543
03/02/2020,20:51,104.92,104.92,104.76,104.86, 2240
03/02/2020,20:52,104.78,104.78,104.67,104.67, 800
03/02/2020,20:53,104.67,104.84,104.67,104.84, 2650
03/02/2020,20:54,104.94,104.99,104.88,104.99, 1521
03/02/2020,20:55,105.05,105.08,104.9,104.9, 1368
03/02/2020,20:56,104.94,105.13,104.94,105.03, 5797
03/02/2020,20:57,105.05,105.05,105.02,105.02, 578
03/02/2020,20:58,104.86,104.88,104.84,104.88, 1147
03/02/2020,20:59,104.88,104.89,104.76,104.77, 1500
03/02/2020,21:00,104.77,104.77,104.46,104.49, 2956
03/02/2020,21:01,104.52,104.6,104.47,104.6, 3499
03/02/2020,21:02,104.65,104.74,104.65,104.69, 2693
03/02/2020,21:03,104.69,104.82,104.68,104.75, 3767
03/02/2020,21:04,104.87,104.95,104.84,104.89, 1882
03/02/2020,21:05,104.81,104.92,104.81,104.84, 1836
03/02/2020,21:06,104.83,104.88,104.82,104.88, 1174
03/02/2020,21:07,104.89,105.09,104.89,105.07, 700
03/02/2020,21:08,105.06,105.1,105.02,105.07, 2782
03/02/2020,21:09,105.04,105.15,105.04,105.15, 1020
03/02/2020,21:10,105.07,105.2,105.07,105.2, 2662
03/02/2020,21:11,105.19,105.2,105.09,105.14, 4472
03/02/2020,21:12,105.19,105.2,105.05,105.07, 3055
03/02/2020,21:13,105.02,105.1,104.98,105.05, 4950
03/02/2020,21:14,105.05,105.22,105.04,105.17, 4622
03/02/2020,21:15,105.12,105.17,105.05,105.05, 2607
03/02/2020,21:16,105.09,105.12,105.07,105.07, 1077
03/02/2020,21:17,105.03,105.09,105.01,105.09, 800
03/02/2020,21:18,105.14,105.26,105.1,105.14, 1711
03/02/2020,21:19,105.15,105.16,105.08,105.11, 1611
03/02/2020,21:20,105.15,105.22,105.12,105.19, 2596
03/02/2020,21:21,105.16,105.17,105.08,105.08, 1936
03/02/2020,21:22,105.1,105.28,105.1,105.28, 2315
03/02/2020,21:23,105.33,105.33,105.23,105.24, 2131
03/02/2020,21:24,105.3,105.34,105.3,105.34, 2929
03/02/2020,21:25,105.34,105.36,105.27,105.32, 25641
03/02/2020,21:26,105.35,105.42,105.26,105.28, 7168
03/02/2020,21:27,105.24,105.33,105.24,105.3, 14669
03/02/2020,21:28,105.32,105.38,105.32,105.37, 7859
03/02/2020,21:29,105.35,105.35,105.27,105.27, 5426
03/02/2020,21:30,105.3,105.32,105.2,105.27, 4060
03/02/2020,21:31,105.29,105.3,105.2,105.2, 3740
03/02/2020,21:32,105.22,105.3,105.2,105.3, 4312
03/02/2020,21:33,105.3,105.35,105.26,105.33, 12820
03/02/2020,21:34,105.32,105.33,105.24,105.31, 4848
03/02/2020,21:35,105.31,105.31,105.19,105.23, 32088
03/02/2020,21:36,105.22,105.25,105.19,105.21, 11662
03/02/2020,21:37,105.22,105.37,105.22,105.3, 24339
03/02/2020,21:38,105.3,105.37,105.24,105.29, 12814
03/02/2020,21:39,105.3,105.48,105.3,105.47, 7473
03/02/2020,21:40,105.48,105.52,105.43,105.46, 9192
03/02/2020,21:41,105.48,105.5,105.41,105.41, 8842
03/02/2020,21:42,105.4,105.47,105.38,105.42, 22639
03/02/2020,21:43,105.39,105.47,105.37,105.42, 18930
03/02/2020,21:44,105.42,105.42,105.22,105.26, 8177
03/02/2020,21:45,105.28,105.3,105.14,105.23, 8034
03/02/2020,21:46,105.22,105.37,105.21,105.37, 8662
03/02/2020,21:47,105.34,105.4,105.19,105.4, 11774
03/02/2020,21:48,105.4,105.43,105.36,105.39, 48220
03/02/2020,21:49,105.37,105.42,105.27,105.32, 10808
03/02/2020,21:50,105.35,105.62,105.35,105.62, 10600
03/02/2020,21:51,105.65,105.78,105.54,105.78, 11132
03/02/2020,21:51,105.8,105.87,105.74,105.87, 8750
03/02/2020,21:52,105.86,105.88,105.81,105.85, 10701
03/02/2020,21:53,105.83,105.86,105.7,105.7, 47236
03/02/2020,21:54,105.7,105.75,105.62,105.75, 20462
03/02/2020,21:55,105.75,105.78,105.7,105.71, 42493
03/02/2020,21:55,105.72,105.77,105.68,105.7, 39137
03/02/2020,21:57,105.7,105.91,105.64,105.7, 46745
03/02/2020,21:58,105.7,105.72,105.56,105.58, 43533
03/02/2020,21:58,105.59,105.66,105.56,105.58, 33251
03/02/2020,21:59,105.57,105.6,105.54,105.6, 64622
03/02/2020,22:00,105.6,105.6,105.59,105.6, 29819
03/02/2020,22:00,105.59,105.6,105.22,105.26, 98996
03/02/2020,22:01,105.31,105.33,105.23,105.31, 24235
03/02/2020,22:05,105.31,105.31,105.31,105.31, 573980
03/03/2020,15:31,105.07,105.07,104.7,104.7, 25058
03/03/2020,15:31,104.32,104.32,104.27,104.27, 1600
03/03/2020,15:32,104.31,104.31,104.31,104.31, 140
03/03/2020,15:35,104.4,104.77,104.23,104.44, 6403
03/03/2020,15:36,104.56,104.65,104.4,104.65, 1844
03/03/2020,15:37,104.58,104.73,104.47,104.61, 6555
03/03/2020,15:39,104.67,104.85,104.59,104.85, 5791
03/03/2020,15:40,104.91,105.03,104.82,104.82, 3280
03/03/2020,15:41,104.96,105,104.8,104.81, 2355
03/03/2020,15:44,104.87,105.13,104.74,104.9, 9373
03/03/2020,15:47,104.99,105.21,104.89,104.9, 9641
03/03/2020,15:48,104.97,105.16,104.97,105.1, 5250
03/03/2020,15:51,105.04,105.17,104.93,104.97, 15903
03/03/2020,15:53,104.98,105.09,104.87,104.99, 2050
03/03/2020,15:56,104.93,104.98,104.6,104.78, 4980
03/03/2020,15:59,104.73,104.73,104.35,104.64, 7877
03/03/2020,16:01,104.68,105.82,104.56,105.82, 4084
03/03/2020,16:04,106.85,106.86,106.14,106.53, 30138
03/03/2020,16:06,106.39,106.95,106.39,106.62, 11235
03/03/2020,16:07,106.62,106.67,105.91,105.91, 4900
03/03/2020,16:09,106.09,106.44,106.01,106.44, 6180
03/03/2020,16:11,106.5,106.5,106.09,106.13, 23804
03/03/2020,16:13,106.11,106.11,105.64,106.08, 16496
03/03/2020,16:14,106.07,106.07,105.76,105.76, 1622
03/03/2020,16:17,105.79,105.79,104.67,104.67, 2963
03/03/2020,16:20,105.08,105.37,104.78,104.99, 7960
03/03/2020,16:25,105.03,105.42,104.83,105.39, 19907
03/03/2020,16:27,105.44,105.58,105.12,105.58, 6360
03/03/2020,16:29,105.57,105.78,105.41,105.41, 6944
03/03/2020,16:31,105.31,105.74,105.16,105.74, 4107
03/03/2020,16:34,105.65,105.66,105.15,105.42, 4004
03/03/2020,16:36,105.57,105.66,105.47,105.57, 6688
03/03/2020,16:38,105.52,105.65,105.42,105.65, 6951
03/03/2020,16:41,105.74,105.76,105.57,105.65, 5590
03/03/2020,16:43,105.66,105.9,105.59,105.88, 14768
03/03/2020,16:47,105.84,106.09,105.7,105.91, 11626
03/03/2020,16:50,105.9,105.92,105.19,105.38, 11061
03/03/2020,16:55,105.45,105.85,105.33,105.85, 8848
03/03/2020,16:59,105.81,105.93,105.51,105.9, 19062
03/03/2020,17:02,105.9,106.15,105.67,105.98, 18148
03/03/2020,17:05,105.93,106.01,105.68,105.78, 5775
03/03/2020,17:09,105.76,105.76,105.34,105.4, 12059
03/03/2020,17:13,105.56,105.56,104.99,104.99, 8931
03/03/2020,17:16,104.87,105.3,104.84,105.1, 5999
03/03/2020,17:19,105.28,105.31,104.72,104.73, 7773
03/03/2020,17:19,104.73,104.75,104.67,104.67, 700
03/03/2020,17:46,104.82,105.1,104.81,104.87, 3606
03/03/2020,17:48,104.85,104.89,104.54,104.56, 10990
03/03/2020,17:50,104.57,104.7,104.52,104.57, 12400
03/03/2020,17:51,104.56,104.75,104.49,104.72, 13181
03/03/2020,17:53,104.67,104.75,104.57,104.72, 9687
03/03/2020,17:55,104.73,105.15,104.68,105.06, 13570
03/03/2020,17:57,105.07,105.08,104.88,104.96, 9291
03/03/2020,18:00,104.94,105.15,104.94,105.08, 12148
03/03/2020,18:01,105.08,105.1,104.95,105.09, 3496
03/03/2020,18:04,105.05,105.08,104.95,105.08, 7488
03/03/2020,18:06,105.12,105.27,105.07,105.27, 15266
03/03/2020,18:08,105.41,105.41,105.26,105.3, 11569
03/03/2020,18:10,105.3,105.51,105.29,105.44, 14061
03/03/2020,18:12,105.49,105.49,105.3,105.33, 4900
03/03/2020,18:15,105.39,105.57,105.39,105.4, 4874
03/03/2020,18:17,105.4,105.51,105.33,105.5, 5741
03/03/2020,18:19,105.48,105.49,105.31,105.32, 4259
03/03/2020,18:20,105.38,105.47,105.36,105.39, 3716
03/03/2020,18:21,105.42,105.49,105.36,105.43, 2966
03/03/2020,18:22,105.43,105.53,105.36,105.48, 1831
03/03/2020,18:23,105.55,105.57,105.44,105.5, 5173
03/03/2020,18:24,105.5,105.57,105.49,105.52, 1415
03/03/2020,18:25,105.49,105.54,105.44,105.46, 2630
03/03/2020,18:26,105.54,105.54,105.52,105.54, 4010
03/03/2020,18:27,105.58,105.61,105.41,105.41, 4343
03/03/2020,18:28,105.42,105.42,105.3,105.34, 3474
03/03/2020,18:29,105.51,105.51,105.35,105.39, 2846
03/03/2020,18:30,105.42,105.46,105.33,105.46, 2500
03/03/2020,18:31,105.5,105.58,105.45,105.46, 7650
03/03/2020,18:32,105.46,105.53,105.39,105.47, 1642
03/03/2020,18:33,105.47,105.47,105.32,105.33, 2860
03/03/2020,18:34,105.29,105.49,105.29,105.45, 4879
03/03/2020,18:35,105.53,105.54,105.39,105.39, 2700
03/03/2020,18:36,105.49,105.49,105.38,105.38, 1910
03/03/2020,18:37,105.42,105.48,105.33,105.48, 5387
03/03/2020,18:38,105.44,105.54,105.43,105.52, 3406
03/03/2020,18:39,105.54,105.54,105.43,105.54, 2872
03/03/2020,18:40,105.52,105.52,105.45,105.45, 1500
03/03/2020,18:41,105.54,105.63,105.5,105.59, 6494
03/03/2020,18:42,105.63,105.67,105.56,105.56, 3418
03/03/2020,18:43,105.62,105.62,105.43,105.47, 2052
03/03/2020,18:44,105.41,105.55,105.39,105.55, 990
03/03/2020,18:44,105.57,105.58,105.51,105.51, 4440
03/03/2020,18:46,105.37,105.59,105.35,105.56, 2200
03/03/2020,18:47,105.56,105.77,105.52,105.77, 1100
03/03/2020,18:48,105.83,105.83,105.72,105.8, 2207
03/03/2020,18:49,105.88,105.97,105.88,105.97, 400
03/03/2020,18:50,105.98,106.03,105.81,105.81, 2738
03/03/2020,18:51,105.95,105.99,105.7,105.7, 5116
03/03/2020,18:52,105.74,105.82,105.74,105.81, 3824
03/03/2020,18:53,105.73,105.73,105.67,105.73, 800
03/03/2020,18:54,105.76,105.76,105.69,105.73, 400
03/03/2020,18:55,105.72,105.75,105.58,105.58, 2402
03/03/2020,18:56,105.58,105.64,105.58,105.64, 400
03/03/2020,18:57,105.66,105.66,105.39,105.39, 3452
03/03/2020,18:58,105.44,105.47,105.41,105.42, 900
03/03/2020,18:59,105.46,105.59,105.46,105.59, 650
03/03/2020,19:00,105.55,105.66,105.54,105.63, 2666
03/03/2020,19:01,105.69,105.72,105.42,105.43, 4890
03/03/2020,19:02,105.46,105.46,105.28,105.37, 3317
03/03/2020,19:03,105.4,105.48,105.4,105.47, 2000
03/03/2020,19:04,105.42,105.43,105.33,105.36, 5225
03/03/2020,19:05,105.4,105.44,105.16,105.17, 3200
03/03/2020,19:06,105.23,105.34,105.19,105.19, 795
03/03/2020,19:07,105.15,105.32,105.15,105.29, 1050
03/03/2020,19:08,105.29,105.29,105.1,105.1, 4559
03/03/2020,19:09,105.22,105.22,105.16,105.16, 2647
03/03/2020,19:10,105.3,105.35,105.2,105.35, 1400
03/03/2020,19:11,105.28,105.31,105.18,105.31, 2200
03/03/2020,19:12,105.3,105.3,105.16,105.16, 2162
03/03/2020,19:13,105.15,105.22,105.1,105.18, 8200
03/03/2020,19:14,105.14,105.2,105.01,105.01, 2703
03/03/2020,19:15,104.98,105.05,104.91,104.91, 1182
03/03/2020,19:16,104.88,105.11,104.88,105.07, 1000
03/03/2020,19:17,105.04,105.14,105.02,105.06, 4574
03/03/2020,19:18,105.05,105.08,105.03,105.08, 600
03/03/2020,19:19,105.11,105.11,105.01,105.07, 1889
03/03/2020,19:20,105.01,105.11,104.89,104.89, 2040
03/03/2020,19:21,104.78,104.96,104.75,104.91, 1832
03/03/2020,19:22,105.02,105.05,104.81,104.88, 1800
03/03/2020,19:23,104.82,104.92,104.77,104.92, 632
03/03/2020,19:24,104.87,104.91,104.82,104.83, 842
03/03/2020,19:25,104.86,104.92,104.75,104.79, 2658
03/03/2020,19:26,104.75,104.83,104.7,104.83, 2000
03/03/2020,19:27,104.79,104.79,104.63,104.63, 2200
03/03/2020,19:28,104.66,104.66,104.43,104.51, 3064
03/03/2020,19:29,104.49,104.58,104.42,104.57, 3050
03/03/2020,19:30,104.52,104.72,104.52,104.72, 4091
03/03/2020,19:31,104.89,104.89,104.66,104.66, 1900
03/03/2020,19:32,104.81,104.85,104.71,104.78, 1373
03/03/2020,19:33,104.71,104.71,104.51,104.54, 1602
03/03/2020,19:34,104.61,104.65,104.52,104.65, 700
03/03/2020,19:35,104.75,104.93,104.75,104.93, 2717
03/03/2020,19:36,104.86,104.99,104.85,104.85, 2236
03/03/2020,19:37,104.83,104.98,104.83,104.98, 950
03/03/2020,19:38,104.92,104.96,104.84,104.84, 1859
03/03/2020,19:39,104.79,104.83,104.63,104.72, 9382
03/03/2020,19:40,104.68,104.77,104.68,104.71, 3281
03/03/2020,19:41,104.73,104.75,104.65,104.68, 1595
03/03/2020,19:42,104.74,104.74,104.54,104.54, 1100
03/03/2020,19:43,104.53,104.53,104.47,104.47, 1100
03/03/2020,19:44,104.42,104.42,104.37,104.41, 1000
03/03/2020,19:45,104.37,104.37,104.14,104.17, 3119
03/03/2020,19:46,104.14,104.19,104.14,104.19, 600
03/03/2020,19:47,104.16,104.32,104.16,104.31, 2888
03/03/2020,19:48,104.38,104.4,104.16,104.26, 1000
03/03/2020,19:49,104.2,104.27,104.15,104.15, 1336
03/03/2020,19:49,104.15,104.19,104.11,104.11, 600
03/03/2020,19:50,104.17,104.19,104.08,104.08, 1100
03/03/2020,19:52,104.16,104.25,104.16,104.21, 746
03/03/2020,19:53,104.19,104.27,104.02,104.02, 2183
03/03/2020,19:54,104.05,104.06,104.01,104.06, 2022
03/03/2020,19:55,104,104.08,103.95,104.08, 2000
03/03/2020,19:56,103.98,104.03,103.94,104, 800
03/03/2020,19:57,103.95,103.95,103.88,103.89, 2200
03/03/2020,19:58,103.85,103.9,103.79,103.9, 2401
03/03/2020,19:59,103.9,104.01,103.9,103.97, 7953
03/03/2020,20:00,104.04,104.04,103.76,103.76, 4067
03/03/2020,20:01,103.72,103.92,103.71,103.92, 4659
03/03/2020,20:02,103.91,104,103.7,103.81, 7024
03/03/2020,20:03,103.78,103.84,103.74,103.77, 8610
03/03/2020,20:04,103.72,103.8,103.63,103.67, 3500
03/03/2020,20:05,103.63,103.63,103.47,103.47, 1100
03/03/2020,20:06,103.55,103.6,103.49,103.49, 1100
03/03/2020,20:07,103.55,103.55,103.43,103.46, 2466
03/03/2020,20:08,103.4,103.43,103.23,103.31, 2300
03/03/2020,20:09,103.33,103.46,103.28,103.4, 1300
03/03/2020,20:10,103.43,103.43,103.22,103.22, 2131
03/03/2020,20:11,103.11,103.15,102.9,102.97, 1348
03/03/2020,20:12,103.15,103.24,103.06,103.24, 1764
03/03/2020,20:12,103.38,103.65,103.38,103.54, 2574
03/03/2020,20:13,103.51,103.51,103.29,103.29, 800
03/03/2020,20:15,103.57,103.57,103.34,103.42, 1979
03/03/2020,20:16,103.47,103.65,103.47,103.56, 1795
03/03/2020,20:17,103.57,103.6,103.43,103.43, 1900
03/03/2020,20:18,103.26,103.34,103.2,103.21, 2290
03/03/2020,20:19,103.15,103.18,102.98,102.98, 1700
03/03/2020,20:20,102.94,103.06,102.93,102.98, 2575
03/03/2020,20:21,102.93,102.93,102.75,102.75, 2516
03/03/2020,20:22,102.78,102.93,102.78,102.93, 1374
03/03/2020,20:23,102.95,103.21,102.95,103.04, 3000
03/03/2020,20:24,103.32,103.34,103.11,103.11, 2401
03/03/2020,20:25,103.06,103.17,102.85,102.92, 5896
03/03/2020,20:26,102.92,103.04,102.9,103.04, 700
03/03/2020,20:27,103.26,103.38,103.2,103.34, 2213
03/03/2020,20:28,103.38,103.38,103.26,103.34, 2700
03/03/2020,20:29,103.32,103.67,103.32,103.67, 1322
03/03/2020,20:30,103.67,103.88,103.66,103.69, 3699
03/03/2020,20:31,103.79,103.82,103.56,103.71, 9429
03/03/2020,20:32,103.68,103.74,103.59,103.66, 2089
03/03/2020,20:33,103.87,104.07,103.78,104.07, 1214
03/03/2020,20:34,103.97,104.02,103.88,103.92, 2634
03/03/2020,20:35,103.92,104.03,103.85,103.9, 5002
03/03/2020,20:36,103.96,104.08,103.94,104.05, 2400
03/03/2020,20:37,103.99,104.08,103.69,103.92, 14147
03/03/2020,20:38,103.96,104.19,103.96,104.12, 3630
03/03/2020,20:39,104.15,104.15,103.94,103.97, 7885
03/03/2020,20:40,104.03,104.12,103.83,103.84, 11297
03/03/2020,20:41,103.85,103.89,103.55,103.55, 3350
03/03/2020,20:42,103.57,103.74,103.57,103.73, 848
03/03/2020,20:43,103.68,103.68,103.5,103.55, 4850
03/03/2020,20:44,103.52,103.55,103.41,103.54, 1963
03/03/2020,20:45,103.45,103.73,103.45,103.67, 4350
03/03/2020,20:46,103.65,103.7,103.58,103.65, 1821
03/03/2020,20:47,103.71,104.01,103.65,104.01, 2991
03/03/2020,20:48,103.93,104.06,103.9,103.92, 2717
03/03/2020,20:49,103.97,104.14,103.97,104.05, 1901
03/03/2020,20:50,103.91,104.07,103.91,104.07, 769
03/03/2020,20:51,104.31,104.32,104.16,104.21, 3476
03/03/2020,20:52,104.17,104.17,104.05,104.08, 900
03/03/2020,20:53,104.05,104.17,103.96,104.17, 1350
03/03/2020,20:54,104.23,104.31,104.16,104.23, 3711
03/03/2020,20:55,104.34,104.41,104.25,104.38, 3126
03/03/2020,20:56,104.47,104.47,104.35,104.39, 2431
03/03/2020,20:57,104.42,104.49,104.31,104.31, 2032
03/03/2020,20:58,104.27,104.41,104.16,104.16, 5363
03/03/2020,20:59,104.19,104.37,104.1,104.13, 2092
03/03/2020,21:00,104.18,104.2,104.07,104.07, 2899
03/03/2020,21:01,104.09,104.2,104.01,104.12, 1902
03/03/2020,21:02,104.13,104.39,103.99,104.3, 1900
03/03/2020,21:03,104.39,104.39,104.21,104.29, 1900
03/03/2020,21:04,104.22,104.24,104.17,104.22, 1500
03/03/2020,21:05,104.32,104.5,104.32,104.5, 1965
03/03/2020,21:06,104.53,104.53,104.37,104.37, 3157
03/03/2020,21:07,104.33,104.38,104.29,104.37, 4402
03/03/2020,21:08,104.39,104.39,104.13,104.13, 7059
03/03/2020,21:09,104.2,104.23,104.12,104.14, 2249
03/03/2020,21:10,104.11,104.14,104.05,104.11, 5362
03/03/2020,21:11,104.07,104.16,104.04,104.04, 6825
03/03/2020,21:12,104.02,104.31,104.02,104.31, 7267
03/03/2020,21:13,104.35,104.66,104.27,104.66, 1100
03/03/2020,21:14,104.7,104.78,104.51,104.62, 3731
03/03/2020,21:15,104.57,104.8,104.57,104.74, 2297
03/03/2020,21:16,104.74,104.77,104.63,104.65, 2659
03/03/2020,21:17,104.65,104.74,104.61,104.73, 2220
03/03/2020,21:18,104.68,104.68,104.55,104.61, 5502
03/03/2020,21:19,104.65,104.78,104.6,104.75, 4177
03/03/2020,21:20,104.85,104.85,104.71,104.76, 6300
03/03/2020,21:21,104.74,104.75,104.57,104.61, 4408
03/03/2020,21:22,104.54,104.56,104.48,104.51, 3568
03/03/2020,21:23,104.51,104.51,104.44,104.49, 2322
03/03/2020,21:24,104.48,104.51,104.21,104.21, 4227
03/03/2020,21:25,104.18,104.23,104.1,104.2, 1463
03/03/2020,21:26,104.09,104.14,104.04,104.1, 3800
03/03/2020,21:27,104.21,104.35,104.19,104.24, 3220
03/03/2020,21:28,104.25,104.55,104.21,104.55, 6001
03/03/2020,21:29,104.61,104.85,104.61,104.81, 3000
03/03/2020,21:30,104.79,104.91,104.77,104.79, 2927
03/03/2020,21:31,104.74,104.85,104.62,104.76, 3064
03/03/2020,21:32,104.73,104.77,104.52,104.63, 4557
03/03/2020,21:33,104.58,104.61,104.32,104.32, 3797
03/03/2020,21:34,104.32,104.39,104.13,104.29, 3558
03/03/2020,21:35,104.3,104.32,104.18,104.18, 1581
03/03/2020,21:36,104.26,104.44,104.25,104.25, 12736
03/03/2020,21:37,104.35,104.4,104.19,104.25, 5935
03/03/2020,21:38,104.21,104.26,104.07,104.07, 5342
03/03/2020,21:39,104.03,104.11,103.88,103.9, 4070
03/03/2020,21:40,103.94,103.99,103.8,103.8, 3151
03/03/2020,21:41,103.79,103.81,103.6,103.81, 5358
03/03/2020,21:42,103.89,104.09,103.89,104.04, 2286
03/03/2020,21:43,104.04,104.35,104.04,104.07, 8441
03/03/2020,21:44,104.19,104.35,104.1,104.2, 8471
03/03/2020,21:45,104.17,104.45,104.14,104.45, 5592
03/03/2020,21:46,104.43,104.54,104.33,104.36, 9127
03/03/2020,21:47,104.3,104.75,104.14,104.63, 5153
03/03/2020,21:48,104.76,104.87,104.59,104.59, 4942
03/03/2020,21:49,104.56,104.86,104.43,104.86, 4774
03/03/2020,21:50,104.89,104.93,104.55,104.56, 5677
03/03/2020,21:51,104.58,104.58,104.27,104.27, 7017
03/03/2020,21:52,104.2,104.29,104.1,104.19, 7368
03/03/2020,21:53,104.21,104.25,104.02,104.12, 9789
03/03/2020,21:54,104.17,104.17,103.9,103.9, 7250
03/03/2020,21:55,103.89,104,103.82,103.99, 11399
03/03/2020,21:55,104.04,104.32,104.04,104.32, 4703
03/03/2020,21:56,104.34,104.78,104.25,104.63, 4786
03/03/2020,21:58,104.45,104.48,104.03,104.08, 6515
03/03/2020,21:59,104.01,104.22,103.82,104.04, 15506
03/03/2020,22:00,104.05,104.1,103.93,103.96, 18565
03/03/2020,22:00,103.94,104.35,103.88,104.25, 21792
03/03/2020,22:01,104.34,104.39,104.28,104.38, 10137
03/03/2020,22:05,104.39,104.39,104.39,104.39, 337937
03/04/2020,15:33,105.88,106.27,105.2,105.58, 34003
03/04/2020,15:33,105.37,105.64,105.37,105.64, 400
03/04/2020,15:34,105.49,105.49,105.49,105.49, 100
03/04/2020,15:36,105.47,105.89,105.25,105.33, 4300
03/04/2020,15:39,105.54,105.65,105.32,105.37, 3646
03/04/2020,15:39,105.35,105.47,105.28,105.29, 2402
03/04/2020,15:43,105.32,105.72,105.24,105.64, 8346
03/04/2020,15:46,105.65,105.65,105.41,105.43, 7592
03/04/2020,15:47,105.28,105.36,105.22,105.35, 4842
03/04/2020,15:49,105.38,105.53,105.36,105.41, 1500
03/04/2020,15:54,105.48,105.5,105.31,105.5, 2234
03/04/2020,15:56,105.56,105.56,105.28,105.29, 4087
03/04/2020,15:57,105.25,105.32,105.2,105.31, 1606
03/04/2020,16:01,105.25,105.36,104.95,105.22, 7829
03/04/2020,16:04,105.22,105.44,105.15,105.21, 10708
03/04/2020,16:07,105.18,105.18,105,105.11, 2215
03/04/2020,16:11,105,105.65,105,105.47, 8395
03/04/2020,16:15,105.42,106.17,105.42,106.17, 14594
03/04/2020,16:17,106.14,106.26,106.03,106.16, 2234
03/04/2020,16:17,106.17,106.22,106.17,106.22, 300
03/04/2020,16:21,106.18,106.36,106.18,106.25, 3670
03/04/2020,16:24,106.25,106.55,106.14,106.22, 22502
03/04/2020,16:25,106.29,106.29,106.1,106.1, 1621
03/04/2020,16:29,106.15,106.16,106.03,106.03, 5011
03/04/2020,16:33,106.09,106.17,105.58,105.58, 9416
03/04/2020,16:34,105.6,105.66,105.45,105.49, 2613
03/04/2020,16:36,105.54,105.62,105.53,105.62, 1500
03/04/2020,16:41,105.66,105.7,105.09,105.21, 33991
03/04/2020,16:42,105.26,105.34,105.26,105.34, 800
03/04/2020,16:47,105.25,105.74,105.21,105.6, 13666
03/04/2020,16:51,105.53,105.71,105.37,105.59, 5929
03/04/2020,16:53,105.59,105.72,105.54,105.68, 3680
03/04/2020,16:58,105.72,105.73,105.38,105.42, 5743
03/04/2020,16:58,105.41,105.49,105.38,105.49, 1383
03/04/2020,17:00,105.53,105.66,105.53,105.62, 2400
03/04/2020,17:03,105.52,105.85,105.46,105.78, 3092
03/04/2020,17:06,105.64,105.79,105.5,105.53, 4614
03/04/2020,17:07,105.56,105.73,105.56,105.73, 2102
03/04/2020,17:09,105.77,105.77,105.43,105.45, 2784
03/04/2020,17:11,105.39,105.63,105.34,105.63, 3558
03/04/2020,17:13,105.59,105.67,105.5,105.63, 2573
03/04/2020,17:16,105.64,105.71,105.6,105.69, 2603
03/04/2020,17:17,105.61,105.61,105.46,105.46, 500
03/04/2020,17:20,105.47,105.61,105.42,105.57, 4267
03/04/2020,17:21,105.47,105.6,105.41,105.45, 2451
03/04/2020,17:23,105.37,105.41,105.31,105.39, 500
03/04/2020,17:25,105.47,105.65,105.46,105.65, 1300
03/04/2020,17:26,105.78,105.78,105.69,105.7, 800
03/04/2020,17:28,105.71,105.71,105.59,105.59, 2189
03/04/2020,17:29,105.64,105.84,105.6,105.84, 2104
03/04/2020,17:31,105.81,105.95,105.81,105.95, 558
03/04/2020,17:31,105.91,105.98,105.89,105.97, 1000
03/04/2020,17:33,105.94,106.05,105.91,105.95, 2610
03/04/2020,17:35,105.9,106.08,105.86,106.08, 12442
03/04/2020,17:37,106.1,106.1,105.8,105.85, 4939
03/04/2020,17:39,105.89,105.93,105.82,105.86, 2508
03/04/2020,17:41,105.91,105.96,105.85,105.85, 1944
03/04/2020,17:41,105.87,105.9,105.86,105.86, 501
03/04/2020,17:43,105.85,105.92,105.79,105.91, 3100
03/04/2020,17:44,105.87,105.9,105.65,105.72, 2141
03/04/2020,17:45,105.75,105.87,105.75,105.84, 744
03/04/2020,17:46,105.96,106.05,105.96,106.02, 3322
03/04/2020,17:47,106.04,106.05,105.96,105.99, 4654
03/04/2020,17:48,105.97,105.97,105.89,105.89, 200
03/04/2020,17:49,105.92,105.92,105.87,105.91, 606
03/04/2020,17:50,105.9,105.96,105.8,105.8, 1900
03/04/2020,17:51,105.78,105.9,105.75,105.89, 1780
03/04/2020,17:52,105.9,106.01,105.9,106.01, 800
03/04/2020,17:53,106.05,106.09,106.03,106.03, 659
03/04/2020,17:54,105.98,106.01,105.92,106.01, 900
03/04/2020,17:55,106.13,106.13,106,106.04, 800
03/04/2020,17:56,105.94,105.99,105.84,105.84, 1310
03/04/2020,17:57,105.88,105.96,105.88,105.96, 2042
03/04/2020,17:58,105.94,105.94,105.88,105.9, 940
03/04/2020,17:58,105.82,105.92,105.82,105.92, 508
03/04/2020,18:00,105.88,105.89,105.81,105.85, 1696
03/04/2020,18:01,105.9,106.01,105.87,105.9, 1959
03/04/2020,18:02,105.95,106.04,105.95,106.03, 726
03/04/2020,18:03,106.1,106.1,106.01,106.01, 900
03/04/2020,18:04,106.01,106.02,105.81,105.82, 3002
03/04/2020,18:05,105.84,105.9,105.81,105.9, 1000
03/04/2020,18:06,105.88,105.95,105.87,105.87, 900
03/04/2020,18:07,105.84,105.84,105.75,105.75, 1010
03/04/2020,18:08,105.74,105.78,105.74,105.78, 600
03/04/2020,18:09,105.76,105.81,105.72,105.75, 1699
03/04/2020,18:10,105.71,105.8,105.66,105.8, 1326
03/04/2020,18:11,105.8,105.85,105.79,105.85, 900
03/04/2020,18:12,105.81,105.85,105.79,105.82, 801
03/04/2020,18:13,105.79,105.81,105.72,105.74, 1400
03/04/2020,18:14,105.75,105.76,105.67,105.7, 1100
03/04/2020,18:15,105.69,105.81,105.68,105.81, 2124
03/04/2020,18:16,105.82,105.89,105.82,105.86, 1206
03/04/2020,18:17,105.83,105.91,105.77,105.89, 2500
03/04/2020,18:18,105.91,106.01,105.91,106.01, 1107
03/04/2020,18:19,106.04,106.05,105.9,105.94, 1500
03/04/2020,18:20,105.88,105.88,105.77,105.85, 8420
03/04/2020,18:21,105.79,105.83,105.74,105.83, 1328
03/04/2020,18:22,105.82,105.85,105.79,105.79, 1191
03/04/2020,18:23,105.7,105.77,105.68,105.72, 971
03/04/2020,18:24,105.69,105.79,105.69,105.74, 500
03/04/2020,18:24,105.68,105.74,105.68,105.73, 1020
03/04/2020,18:25,105.7,105.78,105.69,105.78, 1026
03/04/2020,18:27,105.78,105.81,105.77,105.81, 1217
03/04/2020,18:28,105.82,105.82,105.67,105.72, 2528
03/04/2020,18:29,105.73,105.79,105.72,105.77, 1649
03/04/2020,18:29,105.75,105.78,105.75,105.78, 702
03/04/2020,18:31,105.81,106,105.79,105.91, 3847
03/04/2020,18:32,105.92,105.92,105.89,105.89, 200
03/04/2020,18:33,105.89,105.9,105.81,105.86, 700
03/04/2020,18:34,105.87,105.88,105.85,105.86, 4407
03/04/2020,18:35,105.82,105.85,105.8,105.85, 1253
03/04/2020,18:36,105.74,105.74,105.61,105.61, 16484
03/04/2020,18:37,105.61,105.62,105.58,105.58, 11409
03/04/2020,18:38,105.56,105.6,105.45,105.45, 11341
03/04/2020,18:39,105.49,105.49,105.43,105.46, 9100
03/04/2020,18:40,105.45,105.47,105.37,105.37, 5251
03/04/2020,18:41,105.35,105.39,105.34,105.34, 3865
03/04/2020,18:42,105.34,105.36,105.31,105.31, 4684
03/04/2020,18:43,105.29,105.29,105.23,105.25, 16390
03/04/2020,18:44,105.25,105.25,105.17,105.23, 17830
03/04/2020,18:45,105.24,105.31,105.23,105.26, 2083
03/04/2020,18:46,105.29,105.35,105.28,105.3, 1370
03/04/2020,18:47,105.32,105.35,105.29,105.32, 15547
03/04/2020,18:48,105.3,105.33,105.3,105.3, 4544
03/04/2020,18:49,105.29,105.3,105.25,105.27, 4114
03/04/2020,18:50,105.27,105.33,105.25,105.33, 15699
03/04/2020,18:51,105.34,105.38,105.29,105.34, 24173
03/04/2020,18:52,105.35,105.36,105.29,105.31, 19291
03/04/2020,18:53,105.34,105.38,105.3,105.37, 23596
03/04/2020,18:54,105.37,105.42,105.36,105.4, 6583
03/04/2020,18:55,105.38,105.47,105.38,105.46, 20121
03/04/2020,18:56,105.44,105.55,105.41,105.55, 37093
03/04/2020,18:57,105.56,105.56,105.47,105.55, 7609
03/04/2020,18:58,105.55,105.57,105.5,105.53, 1400
03/04/2020,18:59,105.55,105.56,105.51,105.56, 1990
03/04/2020,19:00,105.59,105.6,105.52,105.59, 3200
03/04/2020,19:01,105.7,105.82,105.7,105.82, 4646
03/04/2020,19:02,105.82,105.84,105.81,105.81, 500
03/04/2020,19:03,105.83,105.85,105.76,105.77, 1507
03/04/2020,19:04,105.78,105.83,105.77,105.83, 900
03/04/2020,19:05,105.83,105.9,105.81,105.9, 4491
03/04/2020,19:06,105.9,106.12,105.9,106.03, 7330
03/04/2020,19:07,106.04,106.12,106.04,106.09, 1100
03/04/2020,19:08,106.12,106.16,106.11,106.16, 700
03/04/2020,19:09,106.17,106.18,106.02,106.02, 3560
03/04/2020,19:10,106.05,106.05,105.99,106.02, 7789
03/04/2020,19:11,105.98,105.99,105.94,105.94, 1792
03/04/2020,19:12,105.93,105.97,105.93,105.97, 735
03/04/2020,19:13,105.99,105.99,105.93,105.96, 1581
03/04/2020,19:14,105.94,105.98,105.94,105.98, 600
03/04/2020,19:15,105.98,105.98,105.89,105.89, 6563
03/04/2020,19:16,105.94,106.04,105.94,106.02, 1588
03/04/2020,19:17,106.02,106.02,105.97,105.97, 12021
03/04/2020,19:18,105.98,106,105.95,106, 18094
03/04/2020,19:19,106.04,106.05,105.99,106.05, 12697
03/04/2020,19:20,106.04,106.06,106.02,106.06, 2256
03/04/2020,19:21,106.1,106.23,106.07,106.1, 30510
03/04/2020,19:22,106.1,106.1,106.06,106.07, 3602
03/04/2020,19:23,106.07,106.13,106.06,106.13, 1924
03/04/2020,19:24,106.12,106.16,106.09,106.14, 900
03/04/2020,19:25,106.13,106.15,106.1,106.15, 1310
03/04/2020,19:26,106.16,106.16,106.12,106.14, 600
03/04/2020,19:27,106.15,106.16,106.1,106.12, 2103
03/04/2020,19:28,106.09,106.09,106.05,106.05, 3193
03/04/2020,19:29,106.05,106.16,106.04,106.16, 1803
03/04/2020,19:30,106.17,106.17,106.11,106.16, 2000
03/04/2020,19:31,106.15,106.15,106.11,106.15, 7038
03/04/2020,19:32,106.15,106.17,106.07,106.16, 5002
03/04/2020,19:33,106.14,106.17,106.1,106.12, 3686
03/04/2020,19:34,106.1,106.15,106.07,106.12, 2398
03/04/2020,19:35,106.12,106.15,106.1,106.14, 2000
03/04/2020,19:36,106.13,106.15,106.09,106.15, 26458
03/04/2020,19:37,106.15,106.17,106.1,106.1, 11489
03/04/2020,19:38,106.11,106.17,106.09,106.16, 14766
03/04/2020,19:39,106.15,106.21,106.11,106.19, 7211
03/04/2020,19:40,106.2,106.22,106.11,106.11, 2943
03/04/2020,19:41,106.11,106.12,106.07,106.08, 3100
03/04/2020,19:42,106.1,106.15,106.08,106.15, 7989
03/04/2020,19:42,106.15,106.15,106.1,106.15, 5994
03/04/2020,19:44,106.13,106.18,106.12,106.14, 7605
03/04/2020,19:45,106.16,106.19,106.16,106.19, 8120
03/04/2020,19:46,106.2,106.22,106.16,106.22, 6550
03/04/2020,19:47,106.23,106.23,106.12,106.15, 11753
03/04/2020,19:48,106.13,106.15,106.08,106.15, 11321
03/04/2020,19:49,106.14,106.19,106.12,106.19, 11842
03/04/2020,19:50,106.18,106.35,106.18,106.35, 2029
03/04/2020,19:51,106.36,106.43,106.33,106.38, 18386
03/04/2020,19:52,106.39,106.52,106.37,106.52, 700
03/04/2020,19:53,106.48,106.48,106.4,106.4, 3100
03/04/2020,19:54,106.39,106.4,106.37,106.4, 4616
03/04/2020,19:55,106.38,106.45,106.38,106.42, 3026
03/04/2020,19:56,106.43,106.48,106.43,106.48, 6989
03/04/2020,19:57,106.47,106.48,106.38,106.47, 11140
03/04/2020,19:58,106.45,106.47,106.29,106.3, 11803
03/04/2020,19:59,106.3,106.35,106.3,106.35, 3160
03/04/2020,20:00,106.3,106.33,106.26,106.29, 1673
03/04/2020,20:01,106.31,106.37,106.3,106.37, 933
03/04/2020,20:02,106.38,106.4,106.3,106.31, 2499
03/04/2020,20:03,106.3,106.31,106.09,106.09, 4710
03/04/2020,20:04,106.13,106.2,106.08,106.2, 1992
03/04/2020,20:05,106.22,106.23,106.2,106.22, 1420
03/04/2020,20:06,106.23,106.28,106.22,106.22, 2459
03/04/2020,20:07,106.24,106.26,106.19,106.26, 1145
03/04/2020,20:08,106.27,106.33,106.25,106.33, 1463
03/04/2020,20:09,106.33,106.4,106.33,106.4, 7868
03/04/2020,20:10,106.38,106.43,106.36,106.39, 2400
03/04/2020,20:11,106.41,106.41,106.36,106.4, 2263
03/04/2020,20:12,106.37,106.4,106.36,106.38, 2100
03/04/2020,20:13,106.37,106.39,106.34,106.38, 2331
03/04/2020,20:14,106.37,106.37,106.31,106.34, 3800
03/04/2020,20:15,106.34,106.38,106.34,106.34, 4134
03/04/2020,20:16,106.37,106.37,106.32,106.37, 7361
03/04/2020,20:17,106.37,106.43,106.37,106.4, 6456
03/04/2020,20:18,106.42,106.48,106.41,106.48, 6255
03/04/2020,20:19,106.49,106.54,106.47,106.49, 7986
03/04/2020,20:20,106.48,106.57,106.48,106.55, 2335
03/04/2020,20:21,106.57,106.58,106.44,106.44, 2843
03/04/2020,20:22,106.47,106.59,106.45,106.59, 6522
03/04/2020,20:23,106.57,106.57,106.48,106.48, 1805
03/04/2020,20:24,106.46,106.46,106.41,106.41, 1700
03/04/2020,20:25,106.41,106.43,106.35,106.43, 8100
03/04/2020,20:26,106.42,106.42,106.38,106.41, 2121
03/04/2020,20:27,106.39,106.5,106.37,106.5, 12121
03/04/2020,20:28,106.48,106.55,106.45,106.45, 3087
03/04/2020,20:29,106.44,106.48,106.42,106.44, 2400
03/04/2020,20:30,106.44,106.48,106.43,106.45, 2401
03/04/2020,20:31,106.45,106.5,106.43,106.5, 8359
03/04/2020,20:32,106.5,106.55,106.49,106.54, 4629
03/04/2020,20:33,106.53,106.54,106.47,106.52, 7552
03/04/2020,20:34,106.5,106.55,106.47,106.55, 3384
03/04/2020,20:34,106.52,106.55,106.52,106.53, 400
03/04/2020,20:36,106.56,106.58,106.47,106.51, 10538
03/04/2020,20:37,106.52,106.52,106.43,106.49, 8722
03/04/2020,20:37,106.5,106.53,106.43,106.43, 2165
03/04/2020,20:39,106.44,106.45,106.39,106.44, 3212
03/04/2020,20:40,106.46,106.47,106.33,106.36, 5335
03/04/2020,20:41,106.38,106.5,106.38,106.47, 6694
03/04/2020,20:42,106.46,106.5,106.4,106.5, 5903
03/04/2020,20:43,106.48,106.53,106.46,106.51, 7836
03/04/2020,20:44,106.47,106.52,106.47,106.48, 6929
03/04/2020,20:45,106.52,106.55,106.49,106.54, 2482
03/04/2020,20:46,106.54,106.56,106.51,106.54, 7071
03/04/2020,20:47,106.51,106.56,106.5,106.54, 3718
03/04/2020,20:48,106.52,106.55,106.5,106.52, 2880
03/04/2020,20:49,106.51,106.58,106.51,106.56, 1763
03/04/2020,20:50,106.59,106.59,106.52,106.54, 3220
03/04/2020,20:51,106.54,106.59,106.45,106.59, 14282
03/04/2020,20:52,106.6,106.65,106.42,106.46, 12541
03/04/2020,20:53,106.47,106.54,106.46,106.53, 7382
03/04/2020,20:54,106.53,106.6,106.51,106.6, 11653
03/04/2020,20:55,106.58,106.65,106.56,106.64, 8863
03/04/2020,20:56,106.64,106.65,106.6,106.65, 3219
03/04/2020,20:57,106.65,106.7,106.62,106.69, 9381
03/04/2020,20:58,106.7,106.8,106.7,106.8, 12259
03/04/2020,20:59,106.8,106.82,106.77,106.82, 6331
03/04/2020,21:00,106.81,106.85,106.8,106.85, 6679
03/04/2020,21:01,106.83,106.9,106.79,106.9, 7764
03/04/2020,21:02,106.87,106.95,106.84,106.95, 2796
03/04/2020,21:03,106.94,106.95,106.92,106.93, 800
03/04/2020,21:04,106.92,106.95,106.84,106.86, 13601
03/04/2020,21:05,106.86,106.89,106.83,106.88, 4404
03/04/2020,21:06,106.9,106.95,106.89,106.92, 6138
03/04/2020,21:07,106.95,107,106.92,106.94, 9172
03/04/2020,21:08,106.95,106.97,106.81,106.83, 4550
03/04/2020,21:09,106.82,106.83,106.74,106.74, 1764
03/04/2020,21:09,106.74,106.76,106.72,106.76, 972
03/04/2020,21:10,106.8,106.8,106.76,106.76, 5445
03/04/2020,21:12,106.81,106.85,106.78,106.85, 2915
03/04/2020,21:13,106.85,106.95,106.84,106.95, 19943
03/04/2020,21:14,106.95,106.95,106.91,106.94, 3200
03/04/2020,21:15,106.94,106.97,106.89,106.89, 6468
03/04/2020,21:16,106.91,106.95,106.85,106.94, 5976
03/04/2020,21:17,106.92,106.95,106.89,106.95, 1688
03/04/2020,21:18,106.94,106.94,106.89,106.9, 3268
03/04/2020,21:19,106.89,106.93,106.88,106.89, 5750
03/04/2020,21:20,106.92,106.95,106.86,106.9, 2607
03/04/2020,21:21,106.92,106.95,106.87,106.95, 4271
03/04/2020,21:22,106.93,106.93,106.89,106.9, 6607
03/04/2020,21:23,106.88,106.94,106.87,106.94, 1965
03/04/2020,21:24,106.94,107.04,106.94,107, 11025
03/04/2020,21:25,107.03,107.09,107.03,107.08, 8501
03/04/2020,21:26,107.07,107.09,107.01,107.09, 4693
03/04/2020,21:27,107.08,107.13,107.04,107.13, 4185
03/04/2020,21:28,107.13,107.14,107.04,107.11, 3882
03/04/2020,21:29,107.1,107.17,107.06,107.17, 12526
03/04/2020,21:30,107.18,107.19,107.16,107.18, 6229
03/04/2020,21:31,107.19,107.24,107.19,107.24, 10059
03/04/2020,21:32,107.27,107.32,107.25,107.31, 8376
03/04/2020,21:33,107.31,107.34,107.29,107.33, 11053
03/04/2020,21:34,107.34,107.44,107.34,107.43, 12142
03/04/2020,21:35,107.44,107.44,107.36,107.43, 10827
03/04/2020,21:36,107.5,107.62,107.5,107.6, 2310
03/04/2020,21:37,107.6,107.63,107.57,107.63, 13783
03/04/2020,21:38,107.66,107.67,107.58,107.61, 7950
03/04/2020,21:39,107.61,107.66,107.58,107.65, 6488
03/04/2020,21:40,107.64,107.65,107.52,107.59, 8637
03/04/2020,21:41,107.59,107.74,107.58,107.73, 4242
03/04/2020,21:42,107.69,107.7,107.6,107.7, 11881
03/04/2020,21:43,107.68,107.68,107.61,107.63, 5872
03/04/2020,21:44,107.63,107.69,107.55,107.55, 5937
03/04/2020,21:45,107.55,107.65,107.53,107.56, 7081
03/04/2020,21:46,107.55,107.56,107.39,107.47, 9117
03/04/2020,21:47,107.48,107.53,107.4,107.47, 7766
03/04/2020,21:48,107.48,107.48,107.29,107.31, 5625
03/04/2020,21:49,107.31,107.39,107.28,107.37, 7742
03/04/2020,21:50,107.34,107.37,107.26,107.29, 7887
03/04/2020,21:51,107.27,107.45,107.26,107.45, 6957
03/04/2020,21:51,107.44,107.58,107.38,107.47, 14842
03/04/2020,21:52,107.51,107.67,107.5,107.62, 14647
03/04/2020,21:53,107.62,107.62,107.52,107.53, 11577
03/04/2020,21:54,107.57,107.59,107.49,107.56, 10285
03/04/2020,21:55,107.54,107.57,107.48,107.57, 12497
03/04/2020,21:56,107.57,107.57,107.5,107.5, 10738
03/04/2020,21:57,107.49,107.58,107.47,107.55, 23321
03/04/2020,21:58,107.53,107.56,107.43,107.53, 29140
03/04/2020,21:59,107.53,107.54,107.41,107.47, 27014
03/04/2020,22:00,107.47,107.51,107.37,107.46, 65459
03/04/2020,22:00,107.48,107.89,107.48,107.86, 33863
03/04/2020,22:01,107.89,107.95,107.85,107.95, 33567
03/04/2020,22:05,107.96,107.96,107.96,107.96, 234394
03/05/2020,15:31,105.22,105.26,105.22,105.25, 800
03/05/2020,15:35,104.9,104.9,104.9,104.9, 100
03/05/2020,15:37,105.17,105.17,104.94,104.96, 19982
03/05/2020,15:38,104.87,105.12,104.87,105.01, 1200
03/05/2020,15:39,105.02,105.02,104.57,104.57, 4220
03/05/2020,15:39,104.57,104.7,104.57,104.69, 800
03/05/2020,15:40,104.88,104.91,104.84,104.84, 300
03/05/2020,15:41,104.67,104.74,104.51,104.51, 600
03/05/2020,15:42,104.69,104.7,104.47,104.47, 2701
03/05/2020,15:43,104.47,104.7,104.36,104.69, 1300
03/05/2020,15:43,104.54,104.77,104.46,104.53, 740
03/05/2020,15:46,104.58,104.67,104.43,104.43, 2800
03/05/2020,15:47,104.36,104.38,104.19,104.22, 2816
03/05/2020,15:48,104.27,104.27,104.13,104.23, 1837
03/05/2020,15:49,104.3,104.3,104.02,104.02, 3661
03/05/2020,15:50,103.98,104.1,103.9,103.9, 2100
03/05/2020,15:52,103.96,104.12,103.86,104.12, 1800
03/05/2020,15:52,104.17,104.17,103.88,103.88, 1367
03/05/2020,15:53,103.88,103.92,103.7,103.7, 2603
03/05/2020,15:55,103.74,103.8,103.67,103.68, 2510
03/05/2020,15:56,103.69,103.87,103.69,103.78, 2002
03/05/2020,15:57,103.71,103.79,103.59,103.68, 3331
03/05/2020,15:58,103.71,103.71,103.57,103.57, 2643
03/05/2020,15:59,103.53,103.54,103.39,103.47, 3143
03/05/2020,16:01,103.5,103.58,103.48,103.58, 2825
03/05/2020,16:01,103.59,103.62,103.46,103.61, 3027
03/05/2020,16:03,103.59,103.65,103.55,103.65, 2364
03/05/2020,16:04,103.66,103.77,103.6,103.6, 2986
03/05/2020,16:06,103.61,103.62,103.41,103.41, 4550
03/05/2020,16:06,103.41,103.47,103.32,103.42, 2385
03/05/2020,16:08,103.44,103.44,103.37,103.37, 1876
03/05/2020,16:09,103.39,103.44,103.34,103.34, 3870
03/05/2020,16:11,103.43,103.45,103.37,103.38, 4049
03/05/2020,16:12,103.43,103.53,103.4,103.53, 2682
03/05/2020,16:13,103.53,103.61,103.53,103.58, 8102
03/05/2020,16:14,103.57,103.67,103.5,103.67, 5867
03/05/2020,16:15,103.67,103.84,103.67,103.83, 1179
03/05/2020,16:16,103.88,104.07,103.84,104.01, 4345
03/05/2020,16:16,103.97,104.2,103.97,104.2, 1800
03/05/2020,16:17,104.22,104.22,104.08,104.13, 1400
03/05/2020,16:18,104.06,104.13,103.96,104, 1300
03/05/2020,16:19,104,104.18,103.95,104.18, 3100
03/05/2020,16:20,104.25,104.27,104.23,104.23, 2053
03/05/2020,16:21,104.28,104.39,104.27,104.27, 3959
03/05/2020,16:23,104.29,104.52,104.25,104.49, 5568
03/05/2020,16:23,104.49,104.69,104.49,104.65, 3400
03/05/2020,16:24,104.69,104.7,104.54,104.54, 6058
03/05/2020,16:25,104.5,104.52,104.3,104.3, 4704
03/05/2020,16:26,104.35,104.4,104.29,104.29, 1500
03/05/2020,16:27,104.25,104.48,104.24,104.47, 2369
03/05/2020,16:28,104.47,104.49,104.36,104.49, 2219
03/05/2020,16:29,104.48,104.54,104.48,104.53, 1081
03/05/2020,16:30,104.53,104.56,104.35,104.35, 4172
03/05/2020,16:31,104.29,104.35,104.22,104.35, 1827
03/05/2020,16:32,104.23,104.39,104.23,104.29, 1245
03/05/2020,16:33,104.21,104.3,104.17,104.24, 600
03/05/2020,16:35,104.26,104.3,104.2,104.29, 3207
03/05/2020,16:36,104.27,104.36,104.23,104.36, 2685
03/05/2020,16:36,104.36,104.36,104.22,104.25, 1700
03/05/2020,16:37,104.2,104.2,104.11,104.11, 1300
03/05/2020,16:39,104.08,104.2,104.08,104.11, 3810
03/05/2020,16:39,104.17,104.17,104.08,104.12, 1813
03/05/2020,16:41,104.07,104.07,104,104.01, 1163
03/05/2020,16:42,103.98,104.12,103.98,104.12, 1700
03/05/2020,16:43,104.14,104.28,104.14,104.28, 1036
03/05/2020,16:44,104.22,104.24,104.21,104.22, 1200
03/05/2020,16:45,104.17,104.17,104.01,104.02, 2689
03/05/2020,16:46,104.02,104.11,104.02,104.02, 1318
03/05/2020,16:47,103.93,103.98,103.85,103.93, 2000
03/05/2020,16:47,103.99,104.03,103.95,104.03, 500
03/05/2020,16:49,104.09,104.19,104.09,104.19, 200
03/05/2020,16:50,104.19,104.37,104.19,104.25, 1193
03/05/2020,16:50,104.22,104.34,104.18,104.32, 3329
03/05/2020,16:52,104.3,104.32,104.24,104.26, 802
03/05/2020,16:53,104.27,104.27,104.21,104.21, 1000
03/05/2020,16:54,104.22,104.42,104.2,104.35, 3650
03/05/2020,16:55,104.37,104.5,104.31,104.36, 2921
03/05/2020,16:55,104.37,104.46,104.36,104.36, 1700
03/05/2020,16:56,104.38,104.45,104.35,104.36, 2600
03/05/2020,16:58,104.36,104.39,104.3,104.34, 6700
03/05/2020,16:59,104.31,104.36,104.26,104.34, 2300
03/05/2020,17:00,104.35,104.44,104.35,104.42, 2200
03/05/2020,17:01,104.42,104.5,104.41,104.44, 2615
03/05/2020,17:02,104.5,104.56,104.41,104.5, 6800
03/05/2020,17:03,104.5,104.56,104.42,104.44, 5239
03/05/2020,17:03,104.43,104.43,104.25,104.37, 2317
03/05/2020,17:05,104.35,104.35,104.24,104.3, 1981
03/05/2020,17:05,104.29,104.42,104.28,104.42, 1484
03/05/2020,17:07,104.46,104.56,104.44,104.55, 8005
03/05/2020,17:08,104.58,104.7,104.49,104.66, 9297
03/05/2020,17:09,104.67,104.72,104.64,104.72, 9854
03/05/2020,17:10,104.7,104.85,104.67,104.85, 2565
03/05/2020,17:11,104.9,105.08,104.89,105.08, 4200
03/05/2020,17:11,105.08,105.08,104.98,105.05, 4485
03/05/2020,17:13,105.06,105.14,105.06,105.13, 1929
03/05/2020,17:14,105.17,105.22,105.16,105.22, 500
03/05/2020,17:14,105.32,105.32,105.16,105.2, 1537
03/05/2020,17:16,105.24,105.24,105.06,105.06, 1700
03/05/2020,17:17,105,105,104.93,104.95, 1600
03/05/2020,17:18,104.95,104.98,104.87,104.95, 4100
03/05/2020,17:19,104.92,104.96,104.9,104.95, 1730
03/05/2020,17:20,104.97,105.07,104.95,105.02, 3431
03/05/2020,17:21,105.03,105.03,104.94,104.98, 1700
03/05/2020,17:21,104.98,104.98,104.9,104.91, 800
03/05/2020,17:23,104.86,104.96,104.8,104.95, 1200
03/05/2020,17:23,105,105.03,104.98,105.03, 300
03/05/2020,17:25,104.98,104.99,104.92,104.96, 1000
03/05/2020,17:26,104.99,105.04,104.9,104.95, 4105
03/05/2020,17:27,104.88,105,104.85,104.91, 2528
03/05/2020,17:28,104.91,104.98,104.9,104.94, 1200
03/05/2020,17:29,104.95,105.11,104.95,105.1, 2100
03/05/2020,17:30,105.06,105.06,104.69,104.69, 1901
03/05/2020,17:31,104.74,104.78,104.72,104.73, 1000
03/05/2020,17:32,104.78,104.78,104.65,104.71, 2638
03/05/2020,17:33,104.71,104.71,104.58,104.59, 1004
03/05/2020,17:33,104.56,104.58,104.51,104.51, 831
03/05/2020,17:35,104.58,104.64,104.55,104.64, 2400
03/05/2020,17:36,104.63,104.72,104.54,104.54, 2700
03/05/2020,17:37,104.56,104.6,104.48,104.6, 1256
03/05/2020,17:37,104.6,104.6,104.5,104.5, 600
03/05/2020,17:38,104.44,104.54,104.41,104.54, 1000
03/05/2020,17:40,104.52,104.52,104.33,104.35, 1701
03/05/2020,17:41,104.39,104.55,104.39,104.5, 2214
03/05/2020,17:42,104.44,104.44,104.35,104.44, 3902
03/05/2020,17:43,104.4,104.48,104.4,104.48, 1000
03/05/2020,17:44,104.48,104.48,104.39,104.39, 1679
03/05/2020,17:44,104.44,104.51,104.37,104.37, 1400
03/05/2020,17:45,104.35,104.35,104.25,104.33, 1632
03/05/2020,17:46,104.3,104.36,104.27,104.35, 1700
03/05/2020,17:48,104.34,104.42,104.34,104.36, 1200
03/05/2020,17:49,104.39,104.41,104.36,104.37, 1343
03/05/2020,17:49,104.41,104.48,104.41,104.41, 2450
03/05/2020,17:51,104.39,104.48,104.37,104.45, 1900
03/05/2020,17:51,104.51,104.51,104.45,104.45, 905
03/05/2020,17:53,104.41,104.44,104.36,104.44, 1000
03/05/2020,17:54,104.39,104.45,104.39,104.45, 400
03/05/2020,17:55,104.42,104.47,104.37,104.43, 1200
03/05/2020,17:56,104.51,104.51,104.42,104.42, 1000
03/05/2020,17:57,104.39,104.41,104.06,104.09, 2000
03/05/2020,17:57,104.1,104.1,104.06,104.06, 300
03/05/2020,17:59,104.07,104.09,104,104, 1034
03/05/2020,18:00,104.06,104.14,104.06,104.11, 1501
03/05/2020,18:01,104.07,104.25,104.06,104.24, 5181
03/05/2020,18:02,104.2,104.27,104.16,104.27, 1100
03/05/2020,18:03,104.29,104.34,104.27,104.27, 1000
03/05/2020,18:04,104.26,104.3,104.24,104.25, 2200
03/05/2020,18:04,104.22,104.27,104.19,104.27, 800
03/05/2020,18:06,104.21,104.26,104.21,104.25, 604
03/05/2020,18:07,104.22,104.25,104.18,104.19, 2685
03/05/2020,18:08,104.14,104.16,104.1,104.13, 1839
03/05/2020,18:09,104.12,104.16,103.99,103.99, 5200
03/05/2020,18:10,103.98,104,103.88,103.88, 2400
03/05/2020,18:11,103.92,103.96,103.88,103.93, 2427
03/05/2020,18:11,103.91,103.95,103.88,103.95, 1000
03/05/2020,18:13,103.98,104.1,103.97,104.1, 2900
03/05/2020,18:14,104.13,104.19,104.09,104.18, 1700
03/05/2020,18:14,104.18,104.19,104.13,104.16, 831
03/05/2020,18:16,104.08,104.11,104.05,104.1, 1556
03/05/2020,18:16,104.04,104.11,103.98,104.11, 1600
03/05/2020,18:18,104.06,104.06,103.9,103.9, 1759
03/05/2020,18:19,103.71,103.74,103.66,103.66, 601
03/05/2020,18:19,103.65,103.69,103.65,103.68, 876
03/05/2020,18:20,103.68,103.74,103.64,103.64, 800
03/05/2020,18:22,103.68,103.68,103.56,103.56, 400
03/05/2020,18:22,103.61,103.62,103.61,103.62, 348
03/05/2020,18:24,103.66,103.71,103.61,103.69, 788
03/05/2020,18:25,103.59,103.6,103.47,103.47, 793
03/05/2020,18:25,103.44,103.5,103.44,103.45, 800
03/05/2020,18:27,103.41,103.41,103.37,103.37, 1000
03/05/2020,18:28,103.36,103.4,103.3,103.33, 900
03/05/2020,18:28,103.33,103.43,103.31,103.42, 1320
03/05/2020,18:30,103.41,103.46,103.38,103.38, 800
03/05/2020,18:31,103.43,103.43,103.38,103.42, 923
03/05/2020,18:32,103.48,103.6,103.47,103.6, 1848
03/05/2020,18:33,103.61,103.64,103.58,103.64, 600
03/05/2020,18:34,103.59,103.64,103.57,103.61, 1826
03/05/2020,18:34,103.66,103.71,103.66,103.71, 500
03/05/2020,18:36,103.63,103.7,103.59,103.7, 1806
03/05/2020,18:37,103.72,103.73,103.6,103.62, 1000
03/05/2020,18:37,103.63,103.64,103.59,103.62, 675
03/05/2020,18:38,103.65,103.65,103.49,103.49, 900
03/05/2020,18:39,103.48,103.48,103.42,103.42, 539
03/05/2020,18:41,103.4,103.41,103.28,103.32, 1775
03/05/2020,18:41,103.32,103.36,103.31,103.36, 800
03/05/2020,18:43,103.31,103.31,103.24,103.25, 900
03/05/2020,18:44,103.17,103.24,103.01,103.12, 2220
03/05/2020,18:45,103.08,103.16,103.07,103.14, 1100
03/05/2020,18:46,103.08,103.14,102.99,103, 2144
03/05/2020,18:47,102.89,103.03,102.89,103.02, 1028
03/05/2020,18:48,103.07,103.09,102.92,102.94, 1901
03/05/2020,18:48,102.91,102.91,102.8,102.88, 700
03/05/2020,18:50,102.9,103.04,102.9,103.03, 1286
03/05/2020,18:51,103.02,103.19,103.02,103.18, 6000
03/05/2020,18:51,103.14,103.2,103.12,103.12, 950
03/05/2020,18:53,103.18,103.19,103.12,103.18, 1700
03/05/2020,18:54,103.23,103.37,103.23,103.35, 1252
03/05/2020,18:54,103.31,103.33,103.26,103.29, 1926
03/05/2020,18:56,103.33,103.43,103.32,103.39, 1682
03/05/2020,18:57,103.35,103.41,103.24,103.24, 1074
03/05/2020,18:58,103.22,103.28,103.19,103.25, 720
03/05/2020,18:59,103.22,103.28,103.12,103.18, 5234
03/05/2020,19:00,103.15,103.24,103.15,103.24, 400
03/05/2020,19:01,103.23,103.23,103.07,103.07, 2239
03/05/2020,19:02,103.12,103.2,103.09,103.09, 2484
03/05/2020,19:02,103.16,103.2,103.13,103.2, 1394
03/05/2020,19:03,103.21,103.21,103.15,103.16, 1000
03/05/2020,19:04,103.1,103.19,103.06,103.19, 800
03/05/2020,19:06,103.11,103.15,103.04,103.15, 1100
03/05/2020,19:07,103.19,103.19,103.12,103.19, 1405
03/05/2020,19:08,103.13,103.16,103.03,103.1, 2223
03/05/2020,19:09,103.12,103.12,103.01,103.07, 2590
03/05/2020,19:09,103.05,103.05,102.95,102.95, 1693
03/05/2020,19:11,102.95,102.99,102.9,102.97, 3200
03/05/2020,19:12,102.97,102.97,102.83,102.92, 3100
03/05/2020,19:13,102.96,103.05,102.95,102.95, 1000
03/05/2020,19:13,102.9,102.93,102.85,102.85, 946
03/05/2020,19:14,102.86,102.86,102.72,102.72, 1700
03/05/2020,19:16,102.77,102.8,102.74,102.78, 3132
03/05/2020,19:17,102.8,102.87,102.73,102.83, 5410
03/05/2020,19:18,102.91,102.97,102.9,102.93, 1600
03/05/2020,19:18,102.88,102.88,102.82,102.82, 900
03/05/2020,19:20,102.87,102.92,102.8,102.85, 1514
03/05/2020,19:21,102.87,102.95,102.87,102.91, 805
03/05/2020,19:22,102.89,102.95,102.86,102.92, 615
03/05/2020,19:22,102.91,103.12,102.91,103.12, 1291
03/05/2020,19:24,103.21,103.21,103.09,103.09, 1702
03/05/2020,19:25,103.09,103.18,103.07,103.1, 3928
03/05/2020,19:26,103.07,103.08,103.03,103.08, 1741
03/05/2020,19:26,103.02,103.12,103.01,103.12, 1915
03/05/2020,19:28,103.09,103.2,103.09,103.14, 3904
03/05/2020,19:29,103.15,103.2,103.15,103.19, 1511
03/05/2020,19:30,103.13,103.21,103.11,103.21, 1428
03/05/2020,19:31,103.22,103.25,103.18,103.21, 4943
03/05/2020,19:32,103.24,103.25,103.08,103.08, 3333
03/05/2020,19:32,103.07,103.18,103.07,103.18, 500
03/05/2020,19:34,103.12,103.21,103.12,103.12, 1700
03/05/2020,19:35,103.16,103.31,103.16,103.27, 4378
03/05/2020,19:36,103.29,103.3,103.24,103.3, 2273
03/05/2020,19:36,103.3,103.36,103.3,103.36, 305
03/05/2020,19:38,103.4,103.43,103.35,103.38, 1100
03/05/2020,19:38,103.39,103.4,103.35,103.35, 800
03/05/2020,19:39,103.37,103.37,103.23,103.27, 2579
03/05/2020,19:40,103.22,103.23,103.12,103.14, 3606
03/05/2020,19:41,103.15,103.16,103.05,103.05, 1679
03/05/2020,19:43,103.04,103.12,103.04,103.06, 1206
03/05/2020,19:44,103.09,103.13,103.06,103.06, 1191
03/05/2020,19:45,103.03,103.04,102.93,103.04, 5794
03/05/2020,19:46,103.04,103.04,102.91,102.91, 2867
03/05/2020,19:47,102.94,103.02,102.93,102.98, 1631
03/05/2020,19:48,102.98,103.04,102.96,103.02, 3201
03/05/2020,19:49,103.04,103.1,102.96,102.96, 6096
03/05/2020,19:50,102.96,103.02,102.93,102.95, 2913
03/05/2020,19:51,103.01,103.08,102.98,103, 1900
03/05/2020,19:52,102.98,103.05,102.84,102.87, 4207
03/05/2020,19:53,102.78,102.83,102.73,102.76, 2885
03/05/2020,19:54,102.74,102.78,102.65,102.66, 2193
03/05/2020,19:55,102.65,102.65,102.47,102.47, 1879
03/05/2020,19:56,102.43,102.51,102.33,102.33, 19566
03/05/2020,19:57,102.34,102.46,102.29,102.31, 5507
03/05/2020,19:58,102.37,102.49,102.14,102.15, 4800
03/05/2020,19:59,102.18,102.25,102.15,102.23, 3412
03/05/2020,20:00,102.22,102.3,102.22,102.22, 3210
03/05/2020,20:01,102.22,102.29,102.16,102.16, 5066
03/05/2020,20:02,102.17,102.2,102.08,102.15, 6274
03/05/2020,20:03,102.14,102.17,102.08,102.09, 4300
03/05/2020,20:04,102.1,102.14,101.83,101.87, 4919
03/05/2020,20:05,101.84,101.87,101.78,101.8, 2907
03/05/2020,20:06,101.8,101.82,101.69,101.8, 3199
03/05/2020,20:07,101.81,102,101.8,101.97, 3000
03/05/2020,20:08,101.97,101.98,101.9,101.92, 3035
03/05/2020,20:09,101.92,102,101.86,101.97, 2600
03/05/2020,20:10,101.93,101.98,101.9,101.95, 2000
03/05/2020,20:11,101.96,101.96,101.82,101.82, 3265
03/05/2020,20:12,101.9,101.97,101.85,101.95, 3000
03/05/2020,20:13,101.95,101.96,101.85,101.87, 5873
03/05/2020,20:14,101.89,101.98,101.89,101.97, 3660
03/05/2020,20:15,101.95,102.16,101.93,102.16, 3560
03/05/2020,20:16,102.11,102.14,101.96,101.98, 5200
03/05/2020,20:17,101.95,101.98,101.91,101.92, 2800
03/05/2020,20:18,101.81,101.86,101.69,101.69, 4429
03/05/2020,20:19,101.72,101.72,101.57,101.57, 5325
03/05/2020,20:20,101.63,101.63,101.42,101.42, 3300
03/05/2020,20:21,101.41,101.5,101.37,101.37, 10506
03/05/2020,20:22,101.47,101.52,101.27,101.34, 12119
03/05/2020,20:22,101.28,101.39,101.26,101.39, 6269
03/05/2020,20:24,101.43,101.43,101.37,101.4, 1640
03/05/2020,20:25,101.37,101.46,101.35,101.4, 3560
03/05/2020,20:25,101.36,101.37,101.28,101.28, 1945
03/05/2020,20:27,101.29,101.34,101.25,101.34, 2140
03/05/2020,20:28,101.29,101.33,101.22,101.29, 6822
03/05/2020,20:29,101.32,101.43,101.31,101.36, 5703
03/05/2020,20:30,101.35,101.58,101.33,101.56, 3402
03/05/2020,20:30,101.62,101.62,101.53,101.53, 2968
03/05/2020,20:32,101.59,101.78,101.59,101.71, 3068
03/05/2020,20:33,101.72,101.78,101.69,101.69, 3782
03/05/2020,20:34,101.7,101.85,101.7,101.78, 3152
03/05/2020,20:35,101.77,101.85,101.77,101.82, 1300
03/05/2020,20:36,101.81,101.81,101.63,101.63, 7836
03/05/2020,20:37,101.66,101.68,101.59,101.67, 2983
03/05/2020,20:38,101.69,101.8,101.69,101.74, 1989
03/05/2020,20:39,101.85,101.9,101.84,101.9, 1223
03/05/2020,20:39,101.87,101.91,101.83,101.91, 1300
03/05/2020,20:41,101.92,102.04,101.92,102.04, 3150
03/05/2020,20:42,102.07,102.13,102.05,102.1, 2347
03/05/2020,20:43,102.1,102.21,102.03,102.03, 20661
03/05/2020,20:44,102.03,102.09,102.02,102.09, 1598
03/05/2020,20:45,102.07,102.07,101.93,101.93, 2056
03/05/2020,20:46,101.9,101.94,101.88,101.88, 1802
03/05/2020,20:47,101.82,101.86,101.79,101.79, 2432
03/05/2020,20:48,101.78,101.9,101.75,101.75, 2400
03/05/2020,20:49,101.74,101.75,101.69,101.72, 1022
03/05/2020,20:50,101.71,101.82,101.69,101.79, 1918
03/05/2020,20:51,101.92,101.96,101.85,101.85, 6910
03/05/2020,20:52,101.9,101.95,101.87,101.87, 3349
03/05/2020,20:52,101.9,101.9,101.86,101.87, 2647
03/05/2020,20:54,101.86,101.9,101.78,101.78, 2663
03/05/2020,20:55,101.74,101.74,101.6,101.6, 2402
03/05/2020,20:56,101.64,101.65,101.58,101.61, 3190
03/05/2020,20:57,101.63,101.68,101.58,101.67, 3286
03/05/2020,20:57,101.69,101.69,101.55,101.56, 4112
03/05/2020,20:59,101.55,101.73,101.48,101.68, 3066
03/05/2020,21:00,101.69,101.82,101.69,101.77, 2280
03/05/2020,21:01,101.7,101.72,101.61,101.62, 2365
03/05/2020,21:02,101.62,101.63,101.47,101.47, 3217
03/05/2020,21:03,101.46,101.52,101.45,101.46, 5805
03/05/2020,21:04,101.45,101.53,101.43,101.43, 3776
03/05/2020,21:05,101.47,101.57,101.47,101.57, 1876
03/05/2020,21:06,101.52,101.52,101.42,101.49, 2516
03/05/2020,21:07,101.48,101.48,101.38,101.47, 2867
03/05/2020,21:08,101.47,101.63,101.43,101.62, 3893
03/05/2020,21:09,101.62,101.64,101.54,101.55, 2404
03/05/2020,21:09,101.52,101.63,101.52,101.59, 2770
03/05/2020,21:11,101.56,101.67,101.53,101.67, 2552
03/05/2020,21:12,101.68,101.69,101.28,101.29, 3934
03/05/2020,21:13,101.23,101.36,101.21,101.34, 2830
03/05/2020,21:13,101.29,101.29,101.2,101.2, 1054
03/05/2020,21:15,101.22,101.27,101.16,101.2, 1575
03/05/2020,21:16,101.17,101.23,101.1,101.23, 2300
03/05/2020,21:17,101.19,101.23,101.18,101.21, 2677
03/05/2020,21:18,101.21,101.21,101.03,101.11, 5834
03/05/2020,21:19,101.15,101.27,101.14,101.23, 5670
03/05/2020,21:20,101.22,101.22,101.14,101.19, 4286
03/05/2020,21:21,101.23,101.33,101.22,101.33, 14003
03/05/2020,21:22,101.36,101.44,101.3,101.36, 3962
03/05/2020,21:23,101.37,101.37,101.2,101.2, 4602
03/05/2020,21:23,101.24,101.3,101.21,101.24, 2577
03/05/2020,21:25,101.24,101.24,101.15,101.15, 2302
03/05/2020,21:26,101.17,101.3,101.17,101.24, 3644
03/05/2020,21:27,101.26,101.31,101.19,101.19, 4006
03/05/2020,21:28,101.17,101.25,101.17,101.2, 14553
03/05/2020,21:29,101.25,101.52,101.19,101.48, 16194
03/05/2020,21:30,101.55,101.6,101.54,101.59, 4235
03/05/2020,21:31,101.62,101.82,101.55,101.63, 42671
03/05/2020,21:32,101.62,101.74,101.57,101.73, 6763
03/05/2020,21:33,101.77,101.99,101.77,101.99, 6465
03/05/2020,21:34,101.99,102.02,101.93,101.97, 6466
03/05/2020,21:35,102.03,102.24,102.01,102.24, 5733
03/05/2020,21:36,102.24,102.34,102.18,102.18, 8079
03/05/2020,21:37,102.17,102.32,102.11,102.31, 10132
03/05/2020,21:38,102.32,102.37,102.28,102.3, 20206
03/05/2020,21:39,102.3,102.32,102.07,102.07, 16960
03/05/2020,21:40,102.02,102.19,102.01,102.01, 10485
03/05/2020,21:41,101.99,102.05,101.83,101.87, 7144
03/05/2020,21:42,101.87,101.94,101.79,101.79, 6857
03/05/2020,21:43,101.79,101.8,101.73,101.77, 7417
03/05/2020,21:44,101.75,101.78,101.54,101.6, 8466
03/05/2020,21:45,101.6,101.85,101.56,101.84, 9195
03/05/2020,21:46,101.85,102.02,101.81,101.95, 9493
03/05/2020,21:47,101.93,101.93,101.7,101.82, 11123
03/05/2020,21:48,101.82,101.86,101.74,101.8, 12917
03/05/2020,21:49,101.8,101.92,101.77,101.85, 8378
03/05/2020,21:50,101.84,102.04,101.83,101.95, 12570
03/05/2020,21:50,101.95,102.01,101.89,101.9, 18407
03/05/2020,21:51,101.91,102.31,101.83,102.31, 7824
03/05/2020,21:53,102.34,102.43,102.19,102.3, 17028
03/05/2020,21:54,102.3,102.34,102.16,102.3, 24862
03/05/2020,21:55,102.29,102.38,102.19,102.36, 45530
03/05/2020,21:55,102.38,102.45,102.32,102.34, 51661
03/05/2020,21:57,102.33,102.65,102.33,102.58, 73420
03/05/2020,21:58,102.58,102.58,102.3,102.33, 50506
03/05/2020,21:58,102.33,102.66,102.26,102.47, 49505
03/05/2020,22:00,102.44,102.67,102.33,102.6, 94321
03/05/2020,22:00,102.59,102.81,102.59,102.7, 29591
03/05/2020,22:01,102.7,102.71,102.63,102.63, 38402
03/05/2020,22:05,102.65,102.65,102.65,102.65, 317827
03/06/2020,15:32,99.57,99.76,99.57,99.76, 800
03/06/2020,15:34,100.01,100.29,100.01,100.09, 1900
03/06/2020,15:34,100.09,100.09,100.08,100.08, 200
03/06/2020,15:36,99.99,100.16,99.99,100.16, 300
03/06/2020,15:37,100.16,100.16,100.16,100.16, 400
03/06/2020,15:38,100.16,100.63,99.8,100.6, 9109
03/06/2020,15:39,100.73,100.96,100.73,100.92, 5762
03/06/2020,15:40,100.86,101,100.86,100.97, 1300
03/06/2020,15:40,100.97,101.06,100.9,101.06, 900
03/06/2020,15:41,100.92,101.01,100.85,101.01, 8803
03/06/2020,15:42,100.97,101.32,100.97,101.27, 11223
03/06/2020,15:43,101.29,101.37,101.29,101.29, 4300
03/06/2020,15:44,101.26,101.31,101.18,101.28, 8354
03/06/2020,15:45,101.32,101.51,101.28,101.51, 2196
03/06/2020,15:46,101.46,101.51,101.41,101.41, 10338
03/06/2020,15:47,101.35,101.37,100.96,100.99, 3718
03/06/2020,15:48,101.11,101.16,101.11,101.14, 1991
03/06/2020,15:49,101.12,101.12,100.99,100.99, 800
03/06/2020,15:49,100.79,100.84,100.71,100.72, 2450
03/06/2020,15:50,100.73,100.88,100.71,100.71, 1200
03/06/2020,15:51,100.71,100.71,100.69,100.69, 421
03/06/2020,15:52,100.73,100.92,100.73,100.92, 1201
03/06/2020,15:53,100.87,100.87,100.73,100.77, 1126
03/06/2020,15:54,100.75,100.75,100.52,100.52, 700
03/06/2020,15:55,100.51,100.53,100.48,100.53, 420
03/06/2020,15:55,100.59,100.59,100.58,100.58, 200
03/06/2020,15:57,100.66,101,100.66,100.84, 6943
03/06/2020,15:58,100.83,100.93,100.7,100.7, 1101
03/06/2020,15:59,100.71,100.99,100.71,100.99, 3494
03/06/2020,16:00,100.84,101.2,100.84,101.09, 1784
03/06/2020,16:01,101.02,101.11,100.88,101, 5343
03/06/2020,16:01,101.1,101.1,100.91,100.96, 3525
03/06/2020,16:02,100.96,101.06,100.9,101.01, 2117
03/06/2020,16:03,101.1,101.1,100.94,100.95, 5525
03/06/2020,16:04,101.08,101.1,100.98,101.03, 1545
03/06/2020,16:05,100.95,101.1,100.93,101.1, 2958
03/06/2020,16:06,101.07,101.19,101.07,101.14, 5477
03/06/2020,16:07,101.13,101.18,101.09,101.18, 1000
03/06/2020,16:08,100.98,101.02,100.74,100.74, 1900
03/06/2020,16:09,100.84,100.84,100.81,100.81, 200
03/06/2020,16:10,100.9,100.97,100.79,100.79, 3067
03/06/2020,16:11,100.76,100.77,100.64,100.64, 1317
03/06/2020,16:12,100.65,100.89,100.65,100.89, 743
03/06/2020,16:13,100.96,100.97,100.7,100.88, 3785
03/06/2020,16:14,100.94,101.1,100.88,101.09, 1300
03/06/2020,16:15,100.97,101.03,100.96,100.96, 1313
03/06/2020,16:16,101.09,101.09,100.96,100.98, 3213
03/06/2020,16:17,101.02,101.15,100.98,101.05, 3865
03/06/2020,16:18,100.98,100.98,100.87,100.87, 919
03/06/2020,16:20,100.89,100.9,100.8,100.9, 1861
03/06/2020,16:21,100.9,100.91,100.81,100.85, 4500
03/06/2020,16:21,100.91,100.94,100.86,100.94, 1300
03/06/2020,16:22,100.93,100.99,100.83,100.83, 1000
03/06/2020,16:23,100.84,100.85,100.76,100.81, 5891
03/06/2020,16:24,100.85,100.99,100.85,100.99, 1500
03/06/2020,16:25,101.06,101.07,100.96,100.99, 2322
03/06/2020,16:26,101.02,101.17,101.02,101.17, 4170
03/06/2020,16:27,101.34,101.53,101.34,101.53, 710
03/06/2020,16:28,101.69,101.82,101.6,101.82, 617
03/06/2020,16:29,101.92,102.21,101.92,102.2, 1800
03/06/2020,16:30,102.19,102.23,102.06,102.22, 4431
03/06/2020,16:31,102.27,102.44,102.27,102.43, 1531
03/06/2020,16:32,102.54,102.82,102.54,102.66, 5626
03/06/2020,16:32,102.62,102.7,102.59,102.6, 5821
03/06/2020,16:34,102.63,102.68,102.44,102.48, 8442
03/06/2020,16:35,102.46,102.5,102.41,102.47, 3232
03/06/2020,16:36,102.47,102.5,102.38,102.41, 5714
03/06/2020,16:37,102.38,102.43,102.27,102.4, 2923
03/06/2020,16:38,102.5,102.67,102.45,102.67, 15797
03/06/2020,16:39,102.66,102.68,102.45,102.46, 5400
03/06/2020,16:39,102.46,102.46,102.4,102.46, 6744
03/06/2020,16:40,102.66,102.68,102.63,102.68, 2545
03/06/2020,16:41,102.6,102.65,102.55,102.55, 1600
03/06/2020,16:43,102.46,102.64,102.45,102.54, 9169
03/06/2020,16:44,102.54,102.61,102.43,102.59, 3648
03/06/2020,16:45,102.63,102.64,102.5,102.54, 1702
03/06/2020,16:46,102.5,102.54,102.47,102.49, 1600
03/06/2020,16:46,102.48,102.52,102.31,102.31, 2570
03/06/2020,16:48,102.32,102.4,102.32,102.38, 3936
03/06/2020,16:49,102.4,102.47,102.29,102.29, 2505
03/06/2020,16:49,102.28,102.43,102.28,102.43, 5018
03/06/2020,16:50,102.5,102.52,102.41,102.52, 2897
03/06/2020,16:51,102.52,102.59,102.52,102.56, 4109
03/06/2020,16:52,102.61,102.66,102.58,102.6, 2100
03/06/2020,16:53,102.6,102.6,102.54,102.59, 1300
03/06/2020,16:54,102.58,102.58,102.32,102.32, 1504
03/06/2020,16:54,102.3,102.33,102.26,102.33, 1100
03/06/2020,16:56,102.37,102.4,102.31,102.38, 4053
03/06/2020,16:57,102.33,102.4,102.3,102.35, 2080
03/06/2020,16:58,102.4,102.43,102.34,102.4, 3337
03/06/2020,16:59,102.4,102.4,102.26,102.26, 975
03/06/2020,17:00,102.33,102.4,102.32,102.4, 1326
03/06/2020,17:01,102.4,102.5,102.36,102.37, 13363
03/06/2020,17:01,102.33,102.58,102.33,102.57, 500
03/06/2020,17:02,102.49,102.53,102.49,102.5, 1384
03/06/2020,17:03,102.46,102.5,102.21,102.23, 3006
03/06/2020,17:05,102.27,102.28,102.04,102.04, 1974
03/06/2020,17:05,102.08,102.08,101.92,101.92, 600
03/06/2020,17:06,101.97,101.97,101.9,101.97, 800
03/06/2020,17:08,102.01,102.02,101.97,101.99, 4252
03/06/2020,17:09,101.94,101.95,101.86,101.86, 600
03/06/2020,17:10,101.85,101.85,101.78,101.84, 400
03/06/2020,17:12,101.83,101.85,101.7,101.73, 2242
03/06/2020,17:13,101.77,101.77,101.58,101.59, 1550
03/06/2020,17:14,101.54,101.64,101.5,101.5, 1450
03/06/2020,17:15,101.5,101.5,101.34,101.34, 1500
03/06/2020,17:16,101.29,101.34,101.23,101.29, 1200
03/06/2020,17:17,101.27,101.4,101.21,101.4, 1200
03/06/2020,17:18,101.39,101.46,101.39,101.4, 2921
03/06/2020,17:19,101.3,101.34,101.25,101.28, 1305
03/06/2020,17:20,101.24,101.24,101.16,101.18, 1761
03/06/2020,17:21,101.2,101.25,101.12,101.12, 1648
03/06/2020,17:22,101.16,101.24,101.16,101.21, 1500
03/06/2020,17:23,101.16,101.2,101.09,101.2, 1700
03/06/2020,17:25,101.19,101.19,101.07,101.18, 1819
03/06/2020,17:26,101.2,101.2,101.08,101.08, 2010
03/06/2020,17:27,101.1,101.37,101.1,101.31, 2408
03/06/2020,17:29,101.32,101.39,101.12,101.12, 3300
03/06/2020,17:30,101.14,101.17,101.09,101.13, 1623
03/06/2020,17:31,101.16,101.25,101.16,101.24, 2084
03/06/2020,17:33,101.27,101.41,101.24,101.24, 5045
03/06/2020,17:34,101.22,101.44,101.19,101.44, 3444
03/06/2020,17:35,101.41,101.41,101.27,101.32, 1755
03/06/2020,17:36,101.3,101.31,101.23,101.23, 1300
03/06/2020,17:37,101.2,101.21,101.15,101.21, 1400
03/06/2020,17:38,101.27,101.34,101.24,101.27, 1900
03/06/2020,17:39,101.24,101.28,101.24,101.28, 600
03/06/2020,17:40,101.25,101.42,101.24,101.42, 760
03/06/2020,17:42,101.42,101.55,101.38,101.55, 4164
03/06/2020,17:42,101.52,101.58,101.48,101.58, 2666
03/06/2020,17:44,101.59,101.71,101.59,101.64, 1806
03/06/2020,17:45,101.59,101.67,101.58,101.6, 2806
03/06/2020,17:45,101.57,101.6,101.5,101.53, 1701
03/06/2020,17:46,101.5,101.51,101.41,101.41, 2000
03/06/2020,17:47,101.44,101.49,101.39,101.49, 1000
03/06/2020,17:49,101.49,101.51,101.4,101.42, 3508
03/06/2020,17:49,101.44,101.5,101.34,101.46, 900
03/06/2020,17:50,101.4,101.4,101.34,101.34, 1100
03/06/2020,17:52,101.36,101.57,101.36,101.52, 1415
03/06/2020,17:53,101.53,101.61,101.53,101.58, 1000
03/06/2020,17:54,101.65,101.68,101.65,101.67, 900
03/06/2020,17:55,101.69,101.73,101.56,101.58, 3534
03/06/2020,17:55,101.54,101.56,101.46,101.46, 400
03/06/2020,17:57,101.54,101.59,101.44,101.44, 1870
03/06/2020,17:57,101.41,101.44,101.38,101.4, 2050
03/06/2020,17:59,101.45,101.58,101.41,101.48, 1995
03/06/2020,18:00,101.53,101.53,101.43,101.43, 1000
03/06/2020,18:01,101.48,101.52,101.46,101.52, 1414
03/06/2020,18:01,101.47,101.47,101.26,101.26, 700
03/06/2020,18:02,101.26,101.33,101.26,101.27, 1271
03/06/2020,18:03,101.27,101.27,101.24,101.24, 795
03/06/2020,18:05,101.26,101.26,101.13,101.16, 2200
03/06/2020,18:05,101.13,101.13,101.04,101.06, 600
03/06/2020,18:07,101.08,101.08,100.98,101.08, 3301
03/06/2020,18:07,101.1,101.15,101.1,101.14, 1500
03/06/2020,18:09,101.11,101.16,101.09,101.09, 700
03/06/2020,18:09,101.08,101.08,101.04,101.08, 2722
03/06/2020,18:11,101.06,101.06,100.98,100.98, 1331
03/06/2020,18:12,100.95,100.95,100.87,100.95, 1799
03/06/2020,18:12,100.95,100.98,100.92,100.94, 1700
03/06/2020,18:14,100.83,100.91,100.82,100.91, 1000
03/06/2020,18:15,100.93,101.04,100.93,100.99, 2106
03/06/2020,18:15,100.97,101.05,100.94,101.05, 1300
03/06/2020,18:16,100.98,101.15,100.97,101.15, 1298
03/06/2020,18:18,101.13,101.13,101.02,101.03, 1600
03/06/2020,18:19,101,101,100.9,100.92, 1000
03/06/2020,18:20,100.94,100.94,100.84,100.84, 738
03/06/2020,18:20,100.89,100.92,100.8,100.83, 1241
03/06/2020,18:21,100.86,100.96,100.81,100.96, 1700
03/06/2020,18:22,100.91,101.05,100.9,100.99, 1256
03/06/2020,18:24,101.01,101.05,100.94,100.94, 1600
03/06/2020,18:24,100.91,100.95,100.89,100.9, 3436
03/06/2020,18:26,100.88,100.88,100.81,100.81, 703
03/06/2020,18:27,100.86,100.86,100.79,100.81, 1391
03/06/2020,18:27,100.79,100.88,100.79,100.82, 800
03/06/2020,18:29,100.8,100.87,100.8,100.85, 901
03/06/2020,18:30,100.88,100.91,100.84,100.89, 2745
03/06/2020,18:31,100.88,100.92,100.77,100.82, 1772
03/06/2020,18:31,100.74,100.95,100.74,100.95, 1000
03/06/2020,18:33,101.01,101.01,100.91,100.91, 600
03/06/2020,18:34,100.88,100.9,100.87,100.9, 794
03/06/2020,18:34,100.96,101.11,100.96,101.11, 1893
03/06/2020,18:36,101.14,101.23,101.14,101.23, 1334
03/06/2020,18:36,101.15,101.28,101.11,101.23, 1503
03/06/2020,18:37,101.22,101.35,101.17,101.35, 700
03/06/2020,18:38,101.42,101.58,101.42,101.58, 501
03/06/2020,18:39,101.62,101.77,101.62,101.65, 1700
03/06/2020,18:40,101.53,101.58,101.53,101.58, 396
03/06/2020,18:42,101.62,101.66,101.62,101.64, 300
03/06/2020,18:42,101.7,101.71,101.64,101.69, 1200
03/06/2020,18:43,101.62,101.68,101.57,101.68, 1647
03/06/2020,18:45,101.66,101.77,101.66,101.7, 6285
03/06/2020,18:46,101.71,101.74,101.66,101.72, 9208
03/06/2020,18:46,101.69,101.85,101.69,101.75, 11560
03/06/2020,18:48,101.74,101.77,101.66,101.67, 11386
03/06/2020,18:48,101.64,101.64,101.56,101.59, 1065
03/06/2020,18:50,101.6,101.61,101.56,101.61, 2400
03/06/2020,18:50,101.59,101.67,101.54,101.61, 3101
03/06/2020,18:52,101.58,101.58,101.52,101.53, 900
03/06/2020,18:53,101.54,101.65,101.54,101.6, 1100
03/06/2020,18:54,101.59,101.59,101.48,101.49, 2039
03/06/2020,18:55,101.53,101.53,101.42,101.42, 1178
03/06/2020,18:56,101.43,101.52,101.42,101.52, 2103
03/06/2020,18:56,101.47,101.49,101.42,101.46, 901
03/06/2020,18:57,101.4,101.5,101.4,101.5, 800
03/06/2020,18:58,101.55,101.62,101.51,101.54, 2300
03/06/2020,19:00,101.48,101.53,101.45,101.49, 2100
03/06/2020,19:01,101.55,101.55,101.45,101.45, 1200
03/06/2020,19:02,101.51,101.51,101.45,101.45, 1000
03/06/2020,19:03,101.44,101.57,101.44,101.52, 1008
03/06/2020,19:03,101.51,101.56,101.51,101.56, 793
03/06/2020,19:04,101.6,101.61,101.57,101.58, 2259
03/06/2020,19:06,101.57,101.62,101.52,101.56, 4848
03/06/2020,19:07,101.55,101.7,101.55,101.64, 6045
03/06/2020,19:07,101.63,101.71,101.62,101.62, 4246
03/06/2020,19:09,101.62,101.62,101.55,101.55, 2720
03/06/2020,19:10,101.57,101.57,101.5,101.52, 1333
03/06/2020,19:10,101.49,101.55,101.49,101.55, 400
03/06/2020,19:12,101.58,101.63,101.58,101.59, 900
03/06/2020,19:13,101.61,101.63,101.46,101.48, 3477
03/06/2020,19:14,101.49,101.49,101.43,101.44, 1342
03/06/2020,19:15,101.42,101.42,101.39,101.42, 928
03/06/2020,19:16,101.38,101.49,101.34,101.35, 2148
03/06/2020,19:16,101.44,101.45,101.44,101.44, 1000
03/06/2020,19:17,101.44,101.56,101.44,101.55, 2989
03/06/2020,19:19,101.58,101.65,101.53,101.65, 1523
03/06/2020,19:19,101.67,101.67,101.58,101.6, 2999
03/06/2020,19:20,101.59,101.59,101.55,101.55, 815
03/06/2020,19:22,101.6,101.78,101.6,101.75, 6958
03/06/2020,19:22,101.72,101.76,101.7,101.7, 1600
03/06/2020,19:24,101.74,101.76,101.7,101.72, 3754
03/06/2020,19:25,101.74,101.94,101.74,101.92, 7370
03/06/2020,19:26,101.94,101.94,101.81,101.81, 7248
03/06/2020,19:26,101.78,101.78,101.64,101.66, 1728
03/06/2020,19:27,101.63,101.67,101.53,101.53, 1500
03/06/2020,19:28,101.49,101.55,101.49,101.55, 400
03/06/2020,19:29,101.54,101.58,101.51,101.51, 1913
03/06/2020,19:30,101.54,101.54,101.46,101.5, 1000
03/06/2020,19:31,101.48,101.56,101.45,101.56, 1700
03/06/2020,19:32,101.61,101.61,101.5,101.5, 1700
03/06/2020,19:34,101.54,101.61,101.54,101.6, 1593
03/06/2020,19:35,101.59,101.59,101.45,101.49, 2074
03/06/2020,19:35,101.51,101.53,101.5,101.53, 900
03/06/2020,19:36,101.5,101.55,101.49,101.49, 1420
03/06/2020,19:38,101.48,101.48,101.4,101.41, 1003
03/06/2020,19:39,101.39,101.54,101.39,101.54, 900
03/06/2020,19:39,101.53,101.55,101.53,101.55, 1300
03/06/2020,19:41,101.61,101.73,101.61,101.71, 4537
03/06/2020,19:41,101.77,101.8,101.74,101.79, 1100
03/06/2020,19:43,101.81,101.81,101.7,101.73, 9592
03/06/2020,19:44,101.71,101.71,101.55,101.6, 1987
03/06/2020,19:44,101.59,101.59,101.46,101.46, 1100
03/06/2020,19:45,101.48,101.48,101.37,101.42, 1000
03/06/2020,19:47,101.4,101.43,101.28,101.29, 2100
03/06/2020,19:47,101.28,101.3,101.22,101.23, 900
03/06/2020,19:49,101.27,101.29,101.23,101.26, 1100
03/06/2020,19:49,101.25,101.26,101.21,101.21, 700
03/06/2020,19:50,101.17,101.19,101.1,101.15, 1709
03/06/2020,19:52,101.17,101.26,101.17,101.21, 2001
03/06/2020,19:52,101.18,101.19,101.16,101.16, 1100
03/06/2020,19:53,101.13,101.14,101.06,101.06, 3397
03/06/2020,19:54,101.14,101.16,101.05,101.1, 2000
03/06/2020,19:56,101.07,101.08,100.98,101.01, 1697
03/06/2020,19:57,101.06,101.15,101.06,101.13, 1652
03/06/2020,19:57,101.13,101.18,101.08,101.15, 800
03/06/2020,19:58,101.14,101.17,101.13,101.14, 1401
03/06/2020,19:59,101.19,101.24,101.18,101.21, 1715
03/06/2020,20:00,101.2,101.23,101.17,101.17, 2305
03/06/2020,20:02,101.19,101.19,100.98,100.98, 1830
03/06/2020,20:02,100.99,100.99,100.99,100.99, 100
03/06/2020,20:04,101.13,101.13,101.05,101.08, 1400
03/06/2020,20:05,101.06,101.19,101,101.09, 3450
03/06/2020,20:05,101.08,101.11,101.06,101.06, 1300
03/06/2020,20:07,101.11,101.18,101.11,101.12, 1200
03/06/2020,20:08,101.13,101.15,101.01,101.09, 1400
03/06/2020,20:08,101.09,101.09,101.01,101.01, 801
03/06/2020,20:10,101.03,101.03,100.94,100.95, 1000
03/06/2020,20:10,101,101.01,101,101.01, 301
03/06/2020,20:11,100.92,101.06,100.9,101.06, 900
03/06/2020,20:12,101.09,101.09,100.99,101.07, 1495
03/06/2020,20:13,101.14,101.21,101.08,101.21, 2804
03/06/2020,20:14,101.21,101.23,101.14,101.19, 3307
03/06/2020,20:16,101.28,101.31,101.19,101.22, 1301
03/06/2020,20:17,101.22,101.26,101.15,101.26, 2260
03/06/2020,20:18,101.26,101.28,101.04,101.07, 4391
03/06/2020,20:19,101.05,101.09,101.03,101.06, 2045
03/06/2020,20:19,101.06,101.1,100.91,101.02, 12887
03/06/2020,20:21,101.04,101.15,101.04,101.15, 2289
03/06/2020,20:22,101.08,101.15,101.05,101.15, 2657
03/06/2020,20:23,101.1,101.2,101.1,101.19, 1887
03/06/2020,20:23,101.22,101.23,101.12,101.12, 4194
03/06/2020,20:25,101.1,101.23,101.1,101.22, 1612
03/06/2020,20:25,101.25,101.37,101.2,101.23, 2911
03/06/2020,20:27,101.27,101.39,101.27,101.39, 1903
03/06/2020,20:28,101.39,101.49,101.39,101.44, 2214
03/06/2020,20:29,101.45,101.46,101.41,101.43, 1454
03/06/2020,20:30,101.42,101.42,101.36,101.36, 6299
03/06/2020,20:31,101.33,101.34,101.18,101.21, 1500
03/06/2020,20:32,101.19,101.27,101.15,101.25, 2295
03/06/2020,20:33,101.21,101.21,101.14,101.18, 1632
03/06/2020,20:34,101.15,101.15,101,101.03, 3090
03/06/2020,20:34,101.01,101.06,101,101.04, 2800
03/06/2020,20:35,101.03,101.03,100.88,100.88, 3671
03/06/2020,20:37,100.94,100.94,100.83,100.85, 2502
03/06/2020,20:37,100.83,100.87,100.79,100.79, 1291
03/06/2020,20:38,100.83,100.85,100.76,100.85, 2173
03/06/2020,20:40,100.85,100.91,100.83,100.85, 2949
03/06/2020,20:40,100.87,100.9,100.85,100.9, 600
03/06/2020,20:42,100.89,100.89,100.75,100.75, 2026
03/06/2020,20:42,100.77,100.77,100.73,100.74, 1560
03/06/2020,20:44,100.75,100.86,100.75,100.85, 2352
03/06/2020,20:44,100.84,100.93,100.83,100.87, 1854
03/06/2020,20:46,100.86,100.86,100.79,100.82, 1500
03/06/2020,20:47,100.81,100.97,100.8,100.9, 2909
03/06/2020,20:47,100.89,100.89,100.75,100.8, 2015
03/06/2020,20:49,100.76,100.76,100.68,100.76, 1600
03/06/2020,20:49,100.76,100.76,100.63,100.63, 1429
03/06/2020,20:50,100.61,100.65,100.5,100.5, 2864
03/06/2020,20:52,100.52,100.54,100.43,100.52, 2800
03/06/2020,20:52,100.52,100.54,100.44,100.44, 2250
03/06/2020,20:53,100.43,100.46,100.39,100.41, 1457
03/06/2020,20:55,100.44,100.48,100.39,100.45, 2500
03/06/2020,20:55,100.47,100.49,100.43,100.45, 1700
03/06/2020,20:57,100.5,100.68,100.45,100.65, 2123
03/06/2020,20:58,100.66,100.66,100.56,100.56, 2103
03/06/2020,20:59,100.56,100.57,100.52,100.52, 900
03/06/2020,20:59,100.55,100.66,100.52,100.66, 1853
03/06/2020,21:01,100.68,100.69,100.42,100.42, 2700
03/06/2020,21:01,100.54,100.56,100.34,100.34, 3050
03/06/2020,21:03,100.34,100.4,100.3,100.34, 3215
03/06/2020,21:04,100.3,100.32,100.28,100.31, 1371
03/06/2020,21:05,100.31,100.33,100.24,100.29, 2704
03/06/2020,21:05,100.36,100.36,100.21,100.22, 2300
03/06/2020,21:07,100.21,100.33,100.19,100.26, 3727
03/06/2020,21:08,100.27,100.31,100.17,100.17, 3318
03/06/2020,21:08,100.17,100.2,100.13,100.14, 2758
03/06/2020,21:09,100.16,100.2,100.13,100.15, 3015
03/06/2020,21:10,100.16,100.21,100.09,100.13, 2820
03/06/2020,21:11,100.13,100.27,100.13,100.18, 6442
03/06/2020,21:13,100.15,100.26,100.11,100.26, 6371
03/06/2020,21:13,100.29,100.53,100.29,100.53, 2200
03/06/2020,21:15,100.5,100.5,100.32,100.32, 3506
03/06/2020,21:16,100.28,100.3,100.17,100.21, 7596
03/06/2020,21:16,100.21,100.29,100.08,100.08, 15134
03/06/2020,21:18,100.12,100.36,100.09,100.34, 12817
03/06/2020,21:19,100.39,100.4,100.28,100.32, 3200
03/06/2020,21:19,100.39,100.55,100.37,100.55, 1000
03/06/2020,21:21,100.59,100.71,100.57,100.71, 5014
03/06/2020,21:22,100.65,100.65,100.54,100.55, 2300
03/06/2020,21:23,100.53,100.64,100.53,100.59, 4186
03/06/2020,21:24,100.56,100.56,100.42,100.42, 3508
03/06/2020,21:25,100.4,100.47,100.37,100.39, 4510
03/06/2020,21:26,100.39,100.61,100.39,100.59, 11764
03/06/2020,21:27,100.58,100.61,100.51,100.59, 9986
03/06/2020,21:28,100.59,100.59,100.44,100.45, 5548
03/06/2020,21:29,100.51,100.59,100.5,100.53, 5192
03/06/2020,21:30,100.56,100.56,100.28,100.33, 3825
03/06/2020,21:30,100.35,100.4,100.34,100.36, 2223
03/06/2020,21:31,100.33,100.54,100.23,100.54, 2435
03/06/2020,21:32,100.52,100.75,100.51,100.62, 5000
03/06/2020,21:33,100.66,100.91,100.54,100.91, 1875
03/06/2020,21:34,100.84,100.88,100.78,100.82, 8559
03/06/2020,21:35,100.83,101.02,100.8,100.91, 3954
03/06/2020,21:36,100.94,101.17,100.94,101.02, 3851
03/06/2020,21:37,101.02,101.02,100.74,100.74, 9915
03/06/2020,21:38,100.78,100.83,100.59,100.59, 5152
03/06/2020,21:40,100.6,100.71,100.58,100.71, 3282
03/06/2020,21:40,100.74,100.74,100.46,100.51, 3865
03/06/2020,21:42,100.54,100.58,100.47,100.56, 6671
03/06/2020,21:42,100.52,100.79,100.51,100.7, 9594
03/06/2020,21:44,100.74,100.77,100.57,100.59, 7887
03/06/2020,21:45,100.6,100.79,100.57,100.7, 8277
03/06/2020,21:45,100.67,100.97,100.67,100.97, 9350
03/06/2020,21:46,100.98,101.15,100.89,101.06, 6509
03/06/2020,21:47,101.11,101.24,101.03,101.03, 7710
03/06/2020,21:48,101.05,101.06,100.75,100.95, 6815
03/06/2020,21:49,100.99,100.99,100.79,100.91, 10402
03/06/2020,21:50,100.93,101.06,100.88,101.03, 12290
03/06/2020,21:51,101.02,101.21,100.98,101.21, 6762
03/06/2020,21:52,101.25,101.51,101.2,101.51, 20354
03/06/2020,21:53,101.51,101.62,101.41,101.45, 12484
03/06/2020,21:54,101.42,101.59,101.35,101.59, 19935
03/06/2020,21:55,101.61,101.65,101.43,101.59, 13807
03/06/2020,21:56,101.6,101.7,101.53,101.63, 17718
03/06/2020,21:57,101.69,101.69,101.52,101.65, 26917
03/06/2020,21:58,101.65,101.9,101.61,101.81, 34021
03/06/2020,21:59,101.85,101.85,101.54,101.63, 13034
03/06/2020,22:00,101.62,101.72,101.46,101.66, 17460
03/06/2020,22:01,101.68,101.68,101.41,101.43, 14135
03/06/2020,22:05,101.45,101.45,101.45,101.45, 190158
03/09/2020,14:31,95.79,96,95.6,95.91, 2300
03/09/2020,14:32,95.95,95.95,95.95,95.95, 300
03/09/2020,14:33,95.98,95.98,95.47,95.82, 26988
03/09/2020,14:34,95.63,95.75,95.63,95.7, 1200
03/09/2020,14:35,95.83,95.91,95.83,95.84, 900
03/09/2020,14:50,102,103.03,98.63,99.13, 23034
03/09/2020,14:53,97.28,97.28,97.28,97.28, 300
03/09/2020,14:53,97.21,97.23,97.21,97.23, 200
03/09/2020,14:54,96.99,96.99,96.99,96.99, 100
03/09/2020,14:55,96.98,96.98,96.98,96.98, 100
03/09/2020,14:56,96.98,97.74,96.98,97.18, 2721
03/09/2020,14:56,97.42,97.77,97.19,97.77, 6627
03/09/2020,14:57,97.85,97.85,97.85,97.85, 100
03/09/2020,14:57,98,98.19,97.61,98.19, 5615
03/09/2020,14:58,98.21,98.21,98.08,98.14, 6841
03/09/2020,14:58,98.14,98.14,98,98.01, 1204
03/09/2020,14:59,97.99,98.04,97.86,97.86, 2300
03/09/2020,14:59,98.05,98.05,97.72,97.72, 4100
03/09/2020,15:00,97.85,97.85,97.85,97.85, 100
03/09/2020,15:01,97.85,97.98,97.77,97.77, 1183
03/09/2020,15:01,97.68,97.68,97.17,97.17, 5465
03/09/2020,15:02,97.37,97.4,97.27,97.4, 1672
03/09/2020,15:02,97.52,97.53,97.13,97.13, 3105
03/09/2020,15:03,97.27,97.3,97.01,97.07, 2413
03/09/2020,15:04,97.26,97.26,97.03,97.13, 6856
03/09/2020,15:04,97.11,97.11,96.84,96.84, 600
03/09/2020,15:05,96.68,96.68,96.64,96.67, 800
03/09/2020,15:05,96.66,96.66,96.25,96.25, 2146
03/09/2020,15:05,96.33,96.33,96.33,96.33, 100
03/09/2020,15:06,96.33,96.47,96.33,96.34, 1518
03/09/2020,15:07,96.48,96.68,96.37,96.62, 3281
03/09/2020,15:07,96.66,96.88,96.66,96.88, 1301
03/09/2020,15:08,96.58,96.79,96.49,96.49, 6354
03/09/2020,15:08,96.23,96.38,96.08,96.3, 16831
03/09/2020,15:09,96.23,96.27,95.99,96.06, 9637
03/09/2020,15:09,95.99,96.18,95.96,96.17, 1300
03/09/2020,15:10,96.17,96.25,96.15,96.23, 1265
03/09/2020,15:11,96.23,96.38,96.22,96.37, 4393
03/09/2020,15:12,96.47,96.47,96.36,96.36, 790
03/09/2020,15:12,96.38,96.42,96.2,96.2, 3010
03/09/2020,15:13,96.36,96.36,96.21,96.32, 830
03/09/2020,15:14,96.32,96.34,96.32,96.34, 957
03/09/2020,15:15,96.34,96.51,96.32,96.46, 12920
03/09/2020,15:15,96.45,96.52,96.29,96.4, 5251
03/09/2020,15:16,96.38,96.58,96.38,96.48, 1995
03/09/2020,15:16,96.5,96.63,96.5,96.58, 950
03/09/2020,15:17,96.64,96.82,96.64,96.82, 500
03/09/2020,15:18,96.8,96.85,96.59,96.66, 3885
03/09/2020,15:18,96.65,96.8,96.65,96.68, 1110
03/09/2020,15:19,96.93,97.2,96.93,97.2, 1300
03/09/2020,15:20,97.22,97.32,97.18,97.32, 1850
03/09/2020,15:21,97.32,97.48,97.26,97.43, 1200
03/09/2020,15:22,97.41,97.5,97.23,97.49, 2200
03/09/2020,15:22,97.41,97.47,97.35,97.42, 2100
03/09/2020,15:23,97.4,97.4,97.13,97.13, 1300
03/09/2020,15:24,97.19,97.41,97.13,97.41, 2965
03/09/2020,15:24,97.54,97.67,97.54,97.55, 600
03/09/2020,15:25,97.69,97.69,97.57,97.65, 7051
03/09/2020,15:26,97.56,97.56,97.22,97.29, 6504
03/09/2020,15:27,97.23,97.32,96.97,97.01, 4202
03/09/2020,15:27,97.08,97.24,97.01,97.24, 3008
03/09/2020,15:28,97.25,97.4,97.25,97.38, 500
03/09/2020,15:28,97.2,97.69,97.2,97.63, 4584
03/09/2020,15:29,97.63,97.64,97.52,97.62, 3776
03/09/2020,15:30,97.62,97.62,97.4,97.4, 5696
03/09/2020,15:30,97.46,97.53,97.35,97.53, 3448
03/09/2020,15:31,97.53,97.54,97.34,97.46, 7701
03/09/2020,15:31,97.49,97.5,97.35,97.38, 1950
03/09/2020,15:32,97.36,97.55,97.36,97.41, 8365
03/09/2020,15:33,97.42,97.62,97.32,97.62, 6474
03/09/2020,15:34,97.62,97.62,97.22,97.37, 5169
03/09/2020,15:35,97.42,97.57,97.34,97.48, 5487
03/09/2020,15:35,97.5,97.61,97.39,97.39, 2300
03/09/2020,15:36,97.44,97.44,97.29,97.37, 3109
03/09/2020,15:37,97.35,97.35,97.14,97.14, 5388
03/09/2020,15:38,97.15,97.35,97.1,97.32, 9801
03/09/2020,15:38,97.32,97.35,97.2,97.35, 4200
03/09/2020,15:39,97.3,97.36,97.19,97.27, 7456
03/09/2020,15:40,97.27,97.36,97.18,97.36, 4062
03/09/2020,15:41,97.35,97.41,97.3,97.41, 4631
03/09/2020,15:42,97.45,97.5,97.33,97.5, 8530
03/09/2020,15:43,97.48,97.48,97.33,97.47, 4900
03/09/2020,15:43,97.46,97.47,97.38,97.44, 4566
03/09/2020,15:44,97.42,97.45,97.32,97.35, 7922
03/09/2020,15:45,97.28,97.36,97.18,97.26, 5405
03/09/2020,15:46,97.19,97.38,97.19,97.24, 2710
03/09/2020,15:46,97.3,97.3,96.9,96.9, 10145
03/09/2020,15:47,96.99,97.01,96.99,97.01, 900
03/09/2020,15:48,97,97.04,96.99,97.03, 3550
03/09/2020,15:49,97,97.05,96.89,97, 19524
03/09/2020,15:50,96.96,97.1,96.96,97.02, 4325
03/09/2020,15:50,97.02,97.02,96.87,96.94, 3963
03/09/2020,15:51,96.97,97.01,96.83,96.91, 12694
03/09/2020,15:51,96.85,97.01,96.84,97, 10100
03/09/2020,15:52,97,97.02,96.83,96.86, 9089
03/09/2020,15:53,96.83,96.88,96.81,96.81, 1413
03/09/2020,15:53,96.85,96.85,96.68,96.71, 2406
03/09/2020,15:54,96.67,96.69,96.55,96.61, 4735
03/09/2020,15:54,96.67,96.73,96.66,96.73, 500
03/09/2020,15:55,96.75,96.89,96.75,96.83, 3400
03/09/2020,15:56,96.84,96.9,96.84,96.9, 1300
03/09/2020,15:56,96.91,96.91,96.76,96.82, 6000
03/09/2020,15:57,96.83,96.87,96.74,96.74, 2300
03/09/2020,15:58,96.69,96.72,96.53,96.59, 3600
03/09/2020,15:59,96.6,96.67,96.53,96.53, 3313
03/09/2020,15:59,96.57,96.72,96.57,96.61, 1600
03/09/2020,16:00,96.61,96.66,96.52,96.54, 3564
03/09/2020,16:01,96.51,96.65,96.47,96.51, 5600
03/09/2020,16:01,96.47,96.54,96.28,96.53, 6652
03/09/2020,16:02,96.49,96.62,96.45,96.54, 5989
03/09/2020,16:03,96.55,96.61,96.51,96.58, 3876
03/09/2020,16:03,96.57,96.58,96.46,96.58, 2019
03/09/2020,16:04,96.6,96.67,96.43,96.5, 10741
03/09/2020,16:04,96.51,96.72,96.51,96.65, 6050
03/09/2020,16:07,96.84,96.88,96.79,96.82, 2924
03/09/2020,16:08,96.85,96.93,96.85,96.93, 1130
03/09/2020,16:09,96.91,96.91,96.77,96.81, 5100
03/09/2020,16:10,96.83,96.92,96.71,96.76, 2500
03/09/2020,16:11,96.81,96.86,96.76,96.82, 5152
03/09/2020,16:12,96.79,97.02,96.79,97, 6804
03/09/2020,16:12,97.03,97.04,96.95,96.95, 2931
03/09/2020,16:13,97.01,97.1,97.01,97.04, 3600
03/09/2020,16:14,97.04,97.08,97.04,97.08, 897
03/09/2020,16:14,97.1,97.18,97.1,97.11, 3945
03/09/2020,16:16,97.11,97.15,97.01,97.08, 3100
03/09/2020,16:16,97.07,97.14,97.03,97.07, 6337
03/09/2020,16:17,97.1,97.26,97.07,97.26, 5829
03/09/2020,16:18,97.26,97.39,97.19,97.27, 3446
03/09/2020,16:19,97.34,97.43,97.3,97.3, 2511
03/09/2020,16:20,97.3,97.48,97.26,97.45, 2100
03/09/2020,16:21,97.36,97.39,97.22,97.3, 3772
03/09/2020,16:22,97.26,97.29,97.16,97.28, 2100
03/09/2020,16:23,97.22,97.22,97.05,97.1, 2600
03/09/2020,16:23,97.18,97.25,97.14,97.25, 1748
03/09/2020,16:24,97.28,97.35,97.23,97.3, 3774
03/09/2020,16:25,97.23,97.39,97.17,97.39, 4956
03/09/2020,16:26,97.45,97.53,97.44,97.53, 7494
03/09/2020,16:27,97.58,97.72,97.53,97.58, 16448
03/09/2020,16:28,97.6,97.6,97.5,97.53, 5803
03/09/2020,16:29,97.43,97.47,97.36,97.38, 1915
03/09/2020,16:29,97.4,97.43,97.14,97.14, 3200
03/09/2020,16:30,97.36,97.45,97.24,97.3, 5500
03/09/2020,16:31,97.34,97.39,97.1,97.15, 4948
03/09/2020,16:32,97.16,97.22,97.15,97.22, 1000
03/09/2020,16:33,97.16,97.24,97,97.14, 3900
03/09/2020,16:33,97.09,97.09,97.09,97.09, 100
03/09/2020,16:34,97.13,97.17,97.05,97.17, 1535
03/09/2020,16:34,97.13,97.24,97.04,97.05, 3525
03/09/2020,16:35,97.18,97.31,97.12,97.15, 7625
03/09/2020,16:36,97.16,97.42,97.16,97.42, 10646
03/09/2020,16:37,97.41,97.53,97.31,97.53, 3174
03/09/2020,16:38,97.52,97.53,97.4,97.45, 5637
03/09/2020,16:38,97.41,97.53,97.41,97.53, 9829
03/09/2020,16:39,97.61,97.74,97.61,97.61, 1000
03/09/2020,16:40,97.57,97.68,97.53,97.58, 1900
03/09/2020,16:41,97.53,97.66,97.48,97.51, 2200
03/09/2020,16:41,97.49,97.57,97.46,97.5, 1800
03/09/2020,16:42,97.51,97.65,97.51,97.65, 2783
03/09/2020,16:43,97.72,97.75,97.66,97.66, 3164
03/09/2020,16:44,97.87,97.94,97.79,97.84, 3809
03/09/2020,16:45,97.84,98.1,97.75,98.09, 4075
03/09/2020,16:47,98.18,98.42,98.12,98.42, 1703
03/09/2020,16:48,98.4,98.65,98.31,98.65, 3601
03/09/2020,16:49,98.63,98.95,98.63,98.94, 2580
03/09/2020,16:50,98.95,99.01,98.68,99.01, 9664
03/09/2020,16:51,98.99,99.05,98.78,99.05, 2900
03/09/2020,16:53,99,99.17,98.78,98.8, 11626
03/09/2020,16:54,98.89,98.96,98.56,98.6, 8574
03/09/2020,16:55,98.6,98.6,98.35,98.47, 1392
03/09/2020,16:57,98.47,98.52,98.31,98.49, 2842
03/09/2020,16:58,98.56,98.59,98.43,98.58, 7195
03/09/2020,17:00,98.59,98.62,98.51,98.53, 2400
03/09/2020,17:01,98.53,98.53,98.25,98.26, 3500
03/09/2020,17:02,98.16,98.21,98.07,98.17, 2100
03/09/2020,17:03,98.05,98.1,97.95,98.01, 3893
03/09/2020,17:04,98.06,98.06,97.93,98, 1700
03/09/2020,17:06,97.93,98,97.89,98, 2800
03/09/2020,17:07,98,98.17,97.94,98.07, 16607
03/09/2020,17:08,98.12,98.21,98.1,98.2, 12364
03/09/2020,17:09,98.21,98.44,98.21,98.32, 7197
03/09/2020,17:10,98.26,98.32,98.1,98.18, 13551
03/09/2020,17:11,98.16,98.25,98.07,98.2, 3788
03/09/2020,17:12,98.14,98.2,98.1,98.18, 4255
03/09/2020,17:13,98.1,98.15,98.06,98.15, 7744
03/09/2020,17:14,98.13,98.15,97.97,97.97, 10735
03/09/2020,17:16,97.97,98.11,97.93,98.02, 9560
03/09/2020,17:17,98.08,98.2,97.93,97.93, 13153
03/09/2020,17:18,97.93,98.05,97.93,98, 1500
03/09/2020,17:19,98.06,98.1,97.82,97.88, 5601
03/09/2020,17:21,97.8,97.89,97.69,97.82, 7850
03/09/2020,17:22,97.78,97.83,97.65,97.74, 8328
03/09/2020,17:23,97.73,97.8,97.68,97.8, 7250
03/09/2020,17:24,97.8,97.8,97.68,97.77, 8842
03/09/2020,17:25,97.7,97.73,97.62,97.73, 5200
03/09/2020,17:27,97.74,97.75,97.62,97.74, 7000
03/09/2020,17:29,97.71,97.74,97.62,97.64, 7396
03/09/2020,17:30,97.6,97.65,97.53,97.65, 4523
03/09/2020,17:31,97.59,97.59,97.5,97.55, 2055
03/09/2020,17:32,97.53,97.58,97.4,97.48, 5001
03/09/2020,17:34,97.49,97.63,97.48,97.63, 12210
03/09/2020,17:36,97.61,97.63,97.25,97.26, 20767
03/09/2020,17:37,97.28,97.5,97.27,97.49, 8195
03/09/2020,17:39,97.49,97.68,97.44,97.68, 17099
03/09/2020,17:41,97.67,97.78,97.6,97.78, 7050
03/09/2020,17:43,97.79,97.8,97.44,97.46, 12762
03/09/2020,17:44,97.47,97.6,97.43,97.44, 6100
03/09/2020,17:46,97.46,97.47,97.25,97.47, 10300
03/09/2020,17:48,97.47,97.65,97.36,97.59, 14314
03/09/2020,17:50,97.58,97.76,97.58,97.68, 8464
03/09/2020,17:52,97.71,97.85,97.64,97.78, 15946
03/09/2020,17:54,97.78,98.04,97.72,97.89, 21534
03/09/2020,17:56,97.91,98.12,97.89,98.05, 8642
03/09/2020,17:57,98.05,98.33,98.05,98.2, 7220
03/09/2020,18:00,98.2,98.34,97.96,97.97, 11663
03/09/2020,18:01,97.94,98.18,97.94,98.06, 11597
03/09/2020,18:03,98.06,98.26,98,98.17, 38912
03/09/2020,18:05,98.19,98.25,98.02,98.02, 15753
03/09/2020,18:07,98.04,98.07,97.74,97.8, 14250
03/09/2020,18:09,97.81,98.19,97.66,98.19, 9354
03/09/2020,18:11,98.19,98.24,97.94,98.14, 8041
03/09/2020,18:13,98.15,98.41,98.1,98.27, 20095
03/09/2020,18:16,98.25,98.37,98.17,98.18, 27869
03/09/2020,18:18,98.16,98.4,98.09,98.32, 20282
03/09/2020,18:19,98.36,98.4,98.15,98.17, 8873
03/09/2020,18:22,98.2,98.25,97.92,97.95, 8075
03/09/2020,18:25,97.9,98.05,97.85,97.99, 3944
03/09/2020,18:27,97.99,98.15,97.85,97.87, 8522
03/09/2020,18:29,97.85,97.89,97.8,97.88, 9198
03/09/2020,18:31,97.83,97.92,97.74,97.81, 5563
03/09/2020,18:34,97.82,97.82,97.59,97.63, 6158
03/09/2020,18:35,97.59,97.63,97.33,97.33, 4770
03/09/2020,18:37,97.42,97.49,97.25,97.25, 3868
03/09/2020,18:39,97.26,97.3,97.15,97.15, 2367
03/09/2020,18:40,97.12,97.22,97.02,97.02, 3018
03/09/2020,18:42,97.01,97.05,96.93,96.93, 8524
03/09/2020,18:43,96.95,96.99,96.92,96.99, 2742
03/09/2020,18:44,96.92,97,96.89,96.89, 4250
03/09/2020,18:45,96.91,96.95,96.7,96.7, 5897
03/09/2020,18:46,96.74,96.87,96.73,96.86, 4905
03/09/2020,18:47,96.87,96.92,96.86,96.9, 9046
03/09/2020,18:48,96.91,97,96.91,97, 4146
03/09/2020,18:51,97.14,97.17,96.89,96.89, 4945
03/09/2020,18:52,96.89,96.89,96.83,96.83, 2400
03/09/2020,18:53,96.86,96.86,96.76,96.76, 3178
03/09/2020,18:54,96.72,96.73,96.67,96.7, 3705
03/09/2020,18:55,96.76,96.76,96.64,96.64, 1500
03/09/2020,18:56,96.59,96.65,96.57,96.57, 1800
03/09/2020,18:57,96.58,96.82,96.58,96.78, 3512
03/09/2020,18:58,96.73,96.75,96.55,96.75, 2753
03/09/2020,18:59,96.75,96.87,96.71,96.87, 5892
03/09/2020,19:00,96.81,96.87,96.73,96.75, 3407
03/09/2020,19:01,96.67,96.75,96.67,96.71, 1400
03/09/2020,19:02,96.72,96.74,96.58,96.74, 2233
03/09/2020,19:03,96.78,96.82,96.47,96.47, 2931
03/09/2020,19:04,96.49,96.49,96.44,96.47, 401
03/09/2020,19:05,96.41,96.41,96.18,96.28, 2300
03/09/2020,19:06,96.24,96.3,96.11,96.18, 3300
03/09/2020,19:07,96.25,96.25,96.09,96.18, 3903
03/09/2020,19:08,96.15,96.4,96.12,96.37, 4501
03/09/2020,19:11,96.2,96.26,96.2,96.26, 902
03/09/2020,19:12,96.24,96.45,96.24,96.44, 2388
03/09/2020,19:13,96.49,96.55,96.43,96.52, 3629
03/09/2020,19:14,96.48,96.56,96.37,96.45, 1138
03/09/2020,19:15,96.51,96.59,96.5,96.59, 500
03/09/2020,19:16,96.64,96.88,96.61,96.87, 6194
03/09/2020,19:17,96.92,97.1,96.86,97.04, 3416
03/09/2020,19:18,97.19,97.2,97.07,97.07, 4670
03/09/2020,19:19,97.08,97.26,97.08,97.08, 2139
03/09/2020,19:20,97.08,97.16,97.07,97.08, 3243
03/09/2020,19:22,96.83,96.87,96.83,96.85, 300
03/09/2020,19:23,96.86,97.01,96.86,96.91, 2084
03/09/2020,19:24,96.92,97.11,96.92,96.98, 5784
03/09/2020,19:25,96.98,97.04,96.98,97.04, 2004
03/09/2020,19:26,97.03,97.03,96.71,96.78, 4626
03/09/2020,19:27,96.78,96.95,96.78,96.8, 5158
03/09/2020,19:28,96.76,96.87,96.76,96.87, 1107
03/09/2020,19:29,96.89,96.92,96.76,96.83, 4650
03/09/2020,19:30,96.82,96.83,96.63,96.66, 5274
03/09/2020,19:31,96.66,96.69,96.48,96.53, 5080
03/09/2020,19:32,96.47,96.66,96.45,96.6, 4562
03/09/2020,19:33,96.6,96.67,96.5,96.55, 11895
03/09/2020,19:34,96.53,96.84,96.47,96.73, 14121
03/09/2020,19:35,96.71,96.75,96.57,96.68, 16984
03/09/2020,19:36,96.63,96.91,96.63,96.91, 5183
03/09/2020,19:37,96.93,97.06,96.93,96.96, 12178
03/09/2020,19:38,96.96,96.96,96.74,96.77, 6106
03/09/2020,19:39,96.82,96.97,96.74,96.97, 4295
03/09/2020,19:40,97,97.35,97,97.35, 6466
03/09/2020,19:41,97.32,97.5,97.27,97.34, 11107
03/09/2020,19:42,97.33,97.33,97.06,97.06, 7950
03/09/2020,19:43,97.06,97.1,96.97,97, 6571
03/09/2020,19:44,96.98,97.04,96.81,96.85, 10654
03/09/2020,19:45,96.89,96.92,96.76,96.81, 5863
03/09/2020,19:46,96.81,96.96,96.79,96.94, 4007
03/09/2020,19:47,97.01,97.01,96.81,96.9, 29336
03/09/2020,19:48,96.93,97.24,96.9,97.24, 7244
03/09/2020,19:49,97.22,97.23,96.95,96.99, 15835
03/09/2020,19:50,96.96,96.98,96.81,96.86, 4478
03/09/2020,19:51,96.92,97.12,96.92,97.12, 8478
03/09/2020,19:52,97.2,97.6,97.2,97.48, 10680
03/09/2020,19:53,97.51,97.54,97.16,97.23, 13924
03/09/2020,19:54,97.28,97.28,97.02,97.15, 5295
03/09/2020,19:55,97.22,97.34,97.16,97.21, 8721
03/09/2020,19:56,97.22,97.47,97.22,97.44, 8296
03/09/2020,19:57,97.4,97.43,97.33,97.37, 2732
03/09/2020,19:58,97.32,97.65,97.3,97.64, 11312
03/09/2020,19:59,97.69,97.69,97.47,97.51, 10381
03/09/2020,20:00,97.54,97.55,97.32,97.32, 13960
03/09/2020,20:01,97.34,97.41,97.23,97.41, 2686
03/09/2020,20:02,97.36,97.4,97.28,97.32, 6596
03/09/2020,20:03,97.28,97.28,97.04,97.09, 5758
03/09/2020,20:04,97.09,97.24,97.04,97.24, 3941
03/09/2020,20:05,97.29,97.67,97.29,97.67, 10672
03/09/2020,20:06,97.68,97.68,97.39,97.56, 19009
03/09/2020,20:07,97.58,97.59,97.36,97.42, 21757
03/09/2020,20:08,97.39,97.47,97.32,97.33, 8690
03/09/2020,20:09,97.33,97.56,97.28,97.52, 16948
03/09/2020,20:10,97.53,97.63,97.41,97.45, 17202
03/09/2020,20:11,97.43,97.5,97.28,97.28, 10801
03/09/2020,20:12,97.31,97.36,97.24,97.26, 12109
03/09/2020,20:13,97.3,97.31,97.21,97.28, 3004
03/09/2020,20:14,97.29,97.35,97.18,97.19, 10911
03/09/2020,20:15,97.17,97.2,97.02,97.17, 3702
03/09/2020,20:16,97.14,97.24,97.03,97.14, 12171
03/09/2020,20:17,97.17,97.28,97.13,97.26, 9044
03/09/2020,20:18,97.27,97.54,97.23,97.49, 19706
03/09/2020,20:19,97.49,97.71,97.42,97.7, 20370
03/09/2020,20:20,97.75,97.85,97.61,97.61, 13341
03/09/2020,20:21,97.6,97.6,97.41,97.5, 5950
03/09/2020,20:22,97.54,97.54,97.33,97.4, 9766
03/09/2020,20:23,97.42,97.81,97.41,97.72, 10863
03/09/2020,20:24,97.79,97.79,97.59,97.59, 15430
03/09/2020,20:25,97.58,97.69,97.56,97.65, 21583
03/09/2020,20:26,97.68,97.97,97.64,97.9, 28605
03/09/2020,20:27,97.89,98.21,97.85,98.21, 39034
03/09/2020,20:28,98.21,98.47,98.08,98.38, 17195
03/09/2020,20:29,98.45,98.54,98.33,98.36, 11418
03/09/2020,20:30,98.45,98.45,98.12,98.12, 11352
03/09/2020,20:31,98.11,98.11,97.73,97.81, 13437
03/09/2020,20:32,97.8,97.88,97.78,97.8, 7420
03/09/2020,20:33,97.82,97.85,97.72,97.75, 2945
03/09/2020,20:35,97.81,97.91,97.78,97.79, 3298
03/09/2020,20:36,97.79,98.01,97.76,97.94, 7718
03/09/2020,20:37,97.94,98.09,97.94,98, 29683
03/09/2020,20:38,98,98.16,98,98.16, 20592
03/09/2020,20:39,98.19,98.33,98.15,98.2, 19277
03/09/2020,20:40,98.23,98.24,98.11,98.11, 14575
03/09/2020,20:41,98.15,98.41,98.13,98.28, 23336
03/09/2020,20:42,98.27,98.35,98.06,98.06, 12008
03/09/2020,20:43,98.11,98.17,98.06,98.11, 9329
03/09/2020,20:44,98.1,98.15,98.06,98.1, 25190
03/09/2020,20:45,98.08,98.33,98.08,98.23, 17626
03/09/2020,20:46,98.24,98.25,97.98,98.06, 13270
03/09/2020,20:47,98.06,98.38,98,98.38, 20165
03/09/2020,20:48,98.42,98.63,98.35,98.63, 20531
03/09/2020,20:49,98.6,98.66,98.53,98.6, 13795
03/09/2020,20:49,98.57,98.78,98.47,98.5, 45467
03/09/2020,20:50,98.53,98.57,98.47,98.51, 20695
03/09/2020,20:51,98.5,98.55,98.15,98.15, 21576
03/09/2020,20:52,98.15,98.23,98.01,98.05, 20476
03/09/2020,20:52,98.05,98.19,97.89,98.15, 24591
03/09/2020,20:53,98.16,98.21,98.05,98.21, 16930
03/09/2020,20:53,98.19,98.36,98.13,98.2, 19408
03/09/2020,20:54,98.24,98.27,98.05,98.07, 29211
03/09/2020,20:55,98.09,98.09,97.9,98.02, 23989
03/09/2020,20:55,98.01,98.24,97.99,98.07, 31949
03/09/2020,20:56,98.06,98.23,98.01,98.01, 34281
03/09/2020,20:57,98.01,98.1,97.96,98.08, 29779
03/09/2020,20:58,98.07,98.11,97.9,97.94, 47502
03/09/2020,20:58,97.95,97.95,97.76,97.77, 34970
03/09/2020,20:59,97.77,97.88,97.77,97.82, 24355
03/09/2020,21:00,97.84,97.88,97.8,97.85, 19112
03/09/2020,21:00,97.81,97.87,97.63,97.79, 22240
03/09/2020,21:05,97.75,97.75,97.37,97.41, 245429
03/10/2020,14:33,100.27,100.27,100.27,100.27, 10400
03/10/2020,14:34,100.27,100.27,100.09,100.09, 29700
03/10/2020,14:35,100.09,100.39,100.09,100.09, 100218
03/10/2020,14:35,100.11,100.57,100.1,100.32, 1703
03/10/2020,14:36,100.32,100.34,100.15,100.15, 1928
03/10/2020,14:36,100.5,100.5,100.43,100.43, 200
03/10/2020,14:38,100.38,100.39,100.1,100.18, 40110
03/10/2020,14:39,100.12,100.15,99.98,100.15, 4748
03/10/2020,14:39,100.09,100.2,100.09,100.17, 2570
03/10/2020,14:39,100.21,100.36,100.21,100.23, 1722
03/10/2020,14:40,100.24,100.4,100.24,100.4, 2780
03/10/2020,14:41,100.38,100.51,100.27,100.32, 4185
03/10/2020,14:42,100.3,100.4,100.08,100.08, 1400
03/10/2020,14:43,100.22,100.22,100.12,100.21, 1500
03/10/2020,14:43,100.12,100.26,100.12,100.14, 1842
03/10/2020,14:44,100.23,100.23,100.04,100.05, 1000
03/10/2020,14:45,99.95,100.03,99.92,100.03, 1012
03/10/2020,14:45,100.02,100.02,99.69,99.69, 900
03/10/2020,14:46,100.03,100.11,99.97,100.11, 935
03/10/2020,14:46,100.07,100.13,99.94,100.06, 4356
03/10/2020,14:46,100.08,100.08,99.85,99.85, 1194
03/10/2020,14:47,99.91,99.93,99.73,99.78, 6160
03/10/2020,14:48,99.8,99.8,99.56,99.56, 2800
03/10/2020,14:49,99.57,99.58,99.53,99.57, 600
03/10/2020,14:50,99.57,99.57,99.42,99.55, 3477
03/10/2020,14:52,99.87,99.87,99.75,99.81, 2402
03/10/2020,14:53,99.81,99.89,99.75,99.89, 1900
03/10/2020,14:54,99.97,100.16,99.97,100.16, 900
03/10/2020,14:54,100.34,100.48,100.34,100.48, 200
03/10/2020,14:55,100.59,100.86,100.59,100.86, 489
03/10/2020,14:57,100.84,101.24,100.77,101.11, 803
03/10/2020,14:57,101.19,101.19,100.82,100.83, 4797
03/10/2020,14:58,100.94,101.05,100.84,100.84, 4498
03/10/2020,14:59,100.7,100.71,100.59,100.62, 2007
03/10/2020,15:00,100.57,100.62,100.53,100.54, 2890
03/10/2020,15:00,100.49,100.49,100.48,100.48, 300
03/10/2020,15:01,100.39,100.39,100.24,100.25, 5020
03/10/2020,15:02,100.26,100.52,100.18,100.51, 2717
03/10/2020,15:03,100.57,100.7,100.57,100.7, 900
03/10/2020,15:03,100.7,100.85,100.7,100.73, 3540
03/10/2020,15:04,100.71,100.71,100.64,100.64, 500
03/10/2020,15:05,100.62,100.72,100.62,100.72, 920
03/10/2020,15:06,100.7,100.96,100.7,100.79, 9848
03/10/2020,15:06,100.78,100.79,100.72,100.79, 910
03/10/2020,15:07,100.73,100.74,100.64,100.69, 3041
03/10/2020,15:08,100.85,100.85,100.85,100.85, 100
03/10/2020,15:09,100.9,100.92,100.83,100.88, 1700
03/10/2020,15:09,100.92,100.92,100.92,100.92, 100
03/10/2020,15:10,100.94,101.01,100.92,100.96, 6145
03/10/2020,15:11,100.98,101.14,100.98,101.12, 9348
03/10/2020,15:12,101.14,101.22,101.08,101.11, 6340
03/10/2020,15:13,101.17,101.17,101.1,101.14, 1403
03/10/2020,15:13,101.16,101.16,101.08,101.13, 500
03/10/2020,15:14,101.1,101.1,100.98,100.98, 5397
03/10/2020,15:15,101.03,101.03,100.91,100.91, 6500
03/10/2020,15:16,100.87,100.88,100.78,100.78, 810
03/10/2020,15:17,100.78,100.78,100.7,100.75, 3672
03/10/2020,15:18,100.69,100.69,100.54,100.62, 2042
03/10/2020,15:19,100.55,100.64,100.55,100.64, 9709
03/10/2020,15:19,100.69,100.9,100.69,100.87, 2820
03/10/2020,15:20,100.84,100.86,100.76,100.76, 1300
03/10/2020,15:21,100.74,100.9,100.74,100.9, 700
03/10/2020,15:22,100.9,100.98,100.86,100.96, 5103
03/10/2020,15:22,100.9,100.9,100.77,100.77, 1000
03/10/2020,15:23,100.74,100.76,100.66,100.66, 700
03/10/2020,15:24,100.61,100.61,100.44,100.44, 550
03/10/2020,15:25,100.43,100.53,100.41,100.52, 716
03/10/2020,15:25,100.45,100.52,100.43,100.43, 600
03/10/2020,15:27,100.37,100.38,100.14,100.14, 3205
03/10/2020,15:28,100.24,100.33,100.22,100.28, 5456
03/10/2020,15:29,100.34,100.34,100.27,100.32, 10370
03/10/2020,15:30,100.32,100.32,100.14,100.26, 2974
03/10/2020,15:31,100.22,100.24,100.17,100.17, 1275
03/10/2020,15:32,100.17,100.2,100.09,100.13, 3772
03/10/2020,15:32,100.13,100.15,100,100.05, 3000
03/10/2020,15:33,100.01,100.1,99.98,100.05, 2850
03/10/2020,15:34,100.01,100.03,99.94,99.99, 3930
03/10/2020,15:35,99.99,100.03,99.99,100.02, 1073
03/10/2020,15:35,100.07,100.18,100.06,100.18, 1801
03/10/2020,15:36,100.22,100.44,100.19,100.32, 7137
03/10/2020,15:37,100.36,100.37,100.25,100.25, 1600
03/10/2020,15:38,100.23,100.23,100.12,100.18, 1207
03/10/2020,15:39,100.18,100.18,100.06,100.09, 1296
03/10/2020,15:40,100.11,100.28,100.11,100.24, 2696
03/10/2020,15:41,100.27,100.34,100.23,100.33, 1852
03/10/2020,15:42,100.24,100.4,100.22,100.4, 3031
03/10/2020,15:43,100.43,100.43,100.28,100.28, 1111
03/10/2020,15:44,100.25,100.25,100.12,100.19, 400
03/10/2020,15:45,100.22,100.43,100.22,100.43, 800
03/10/2020,15:46,100.39,100.49,100.34,100.35, 2314
03/10/2020,15:51,100.35,100.48,99.81,99.92, 2542
03/10/2020,15:52,99.8,99.84,99.79,99.79, 1200
03/10/2020,15:53,99.81,99.83,99.68,99.68, 1699
03/10/2020,15:54,99.63,99.63,99.53,99.56, 736
03/10/2020,15:54,99.6,99.6,99.47,99.51, 2800
03/10/2020,15:55,99.49,99.56,99.45,99.45, 5470
03/10/2020,15:56,99.43,99.56,99.4,99.53, 3382
03/10/2020,15:57,99.59,99.62,99.57,99.62, 817
03/10/2020,15:57,99.65,99.69,99.54,99.56, 3308
03/10/2020,15:58,99.58,99.61,99.49,99.61, 2759
03/10/2020,15:59,99.52,99.52,99.52,99.52, 100
03/10/2020,16:00,99.51,99.51,99.29,99.29, 1700
03/10/2020,16:01,99.27,99.38,99.22,99.27, 4247
03/10/2020,16:01,99.28,99.3,99.22,99.3, 7417
03/10/2020,16:02,99.22,99.26,99.22,99.26, 5200
03/10/2020,16:05,99.51,99.59,99.49,99.59, 2686
03/10/2020,16:05,99.53,99.53,99.45,99.45, 1800
03/10/2020,16:06,99.51,99.51,99.49,99.49, 200
03/10/2020,16:07,99.56,99.62,99.55,99.62, 600
03/10/2020,16:10,99.69,100.03,99.6,99.92, 2815
03/10/2020,16:11,99.96,100,99.86,99.86, 1400
03/10/2020,16:12,99.75,99.75,99.63,99.63, 300
03/10/2020,16:12,99.63,99.63,99.48,99.48, 1982
03/10/2020,16:13,99.45,99.58,99.45,99.58, 837
03/10/2020,16:14,99.55,99.55,99.44,99.45, 1748
03/10/2020,16:15,99.41,99.49,99.39,99.39, 2600
03/10/2020,16:15,99.39,99.41,99.17,99.17, 2000
03/10/2020,16:16,99.19,99.29,99.19,99.29, 1100
03/10/2020,16:17,99.21,99.26,99.21,99.22, 700
03/10/2020,16:18,99.22,99.25,99.12,99.14, 2389
03/10/2020,16:18,99.16,99.16,99.11,99.16, 1500
03/10/2020,16:19,99.16,99.22,99.11,99.12, 2074
03/10/2020,16:20,99.06,99.06,99.01,99.05, 1578
03/10/2020,16:20,99.01,99.02,98.95,98.95, 801
03/10/2020,16:21,98.96,98.99,98.88,98.93, 2500
03/10/2020,16:22,98.94,99,98.92,98.92, 2300
03/10/2020,16:22,98.96,98.98,98.96,98.98, 300
03/10/2020,16:23,99.03,99.03,98.84,98.84, 1292
03/10/2020,16:24,98.85,98.85,98.67,98.67, 1428
03/10/2020,16:25,98.64,98.67,98.59,98.6, 2100
03/10/2020,16:25,98.54,98.56,98.3,98.3, 1998
03/10/2020,16:26,98.35,98.36,98.25,98.32, 1840
03/10/2020,16:26,98.22,98.23,98.08,98.08, 1375
03/10/2020,16:27,98.02,98.11,98.01,98.05, 500
03/10/2020,16:28,98.12,98.25,98.12,98.23, 1833
03/10/2020,16:28,98.26,98.26,98.26,98.26, 100
03/10/2020,16:29,98.31,98.46,98.25,98.37, 3293
03/10/2020,16:30,98.24,98.24,98.07,98.12, 2981
03/10/2020,16:31,98.07,98.07,97.95,98.04, 2283
03/10/2020,16:31,98.03,98.09,97.85,97.85, 700
03/10/2020,16:33,97.85,97.87,97.7,97.78, 2081
03/10/2020,16:34,97.81,97.81,97.7,97.75, 8109
03/10/2020,16:34,97.74,97.82,97.73,97.74, 7695
03/10/2020,16:35,97.77,97.9,97.67,97.67, 3200
03/10/2020,16:36,97.62,97.71,97.58,97.63, 5457
03/10/2020,16:36,97.59,97.71,97.59,97.61, 5003
03/10/2020,16:37,97.64,97.65,97.53,97.54, 2200
03/10/2020,16:38,97.59,97.62,97.54,97.6, 1572
03/10/2020,16:40,97.6,97.7,97.54,97.7, 2966
03/10/2020,16:40,97.81,97.91,97.79,97.8, 2949
03/10/2020,16:41,97.92,97.93,97.75,97.75, 2200
03/10/2020,16:42,97.71,97.73,97.62,97.62, 1500
03/10/2020,16:42,97.67,97.67,97.63,97.63, 300
03/10/2020,16:43,97.71,98.05,97.7,98.05, 4390
03/10/2020,16:44,98.07,98.08,97.9,97.92, 3651
03/10/2020,16:45,97.95,98.19,97.95,98.17, 2800
03/10/2020,16:46,98.18,98.28,98.18,98.28, 1374
03/10/2020,16:46,98.29,98.42,98.29,98.41, 1400
03/10/2020,16:47,98.53,98.67,98.53,98.67, 1852
03/10/2020,16:48,98.72,98.72,98.64,98.64, 1403
03/10/2020,16:48,98.63,98.64,98.57,98.63, 995
03/10/2020,16:49,98.5,98.68,98.5,98.68, 3354
03/10/2020,16:49,98.61,98.61,98.55,98.61, 1499
03/10/2020,16:50,98.63,98.71,98.58,98.58, 5518
03/10/2020,16:51,98.59,98.63,98.52,98.52, 958
03/10/2020,16:52,98.39,98.39,98.26,98.31, 2913
03/10/2020,16:53,98.25,98.26,97.99,98.02, 1296
03/10/2020,16:54,97.95,98.13,97.95,97.98, 2442
03/10/2020,16:55,97.96,98.03,97.85,97.86, 5137
03/10/2020,16:56,97.94,98.09,97.93,98.05, 2300
03/10/2020,16:57,98.09,98.09,97.96,97.96, 3380
03/10/2020,16:58,97.95,98.04,97.85,98.04, 2325
03/10/2020,16:59,98.11,98.34,98.11,98.27, 1086
03/10/2020,17:00,98.3,98.34,97.91,98.04, 7481
03/10/2020,17:02,98.11,98.7,98.11,98.67, 1500
03/10/2020,17:03,98.66,98.86,98.66,98.84, 5018
03/10/2020,17:04,98.65,98.78,98.65,98.67, 4052
03/10/2020,17:07,98.72,98.87,98.58,98.73, 4814
03/10/2020,17:08,98.67,98.73,98.53,98.53, 2906
03/10/2020,17:10,98.5,98.52,98.36,98.44, 2355
03/10/2020,17:11,98.54,98.76,98.49,98.67, 2010
03/10/2020,17:12,98.6,98.65,98.58,98.65, 1500
03/10/2020,17:13,98.74,98.8,98.72,98.72, 727
03/10/2020,17:14,98.92,99.25,98.92,99.13, 5173
03/10/2020,17:15,99.05,99.25,98.99,99.12, 3137
03/10/2020,17:16,99.23,99.36,99.06,99.34, 2600
03/10/2020,17:17,99.36,99.39,99.25,99.32, 2694
03/10/2020,17:18,99.35,99.41,99.19,99.25, 4193
03/10/2020,17:20,99.19,99.42,99.19,99.36, 5232
03/10/2020,17:21,99.31,99.49,99.23,99.32, 4578
03/10/2020,17:22,99.22,99.35,99.2,99.33, 3936
03/10/2020,17:23,99.28,99.28,98.92,98.93, 4290
03/10/2020,17:24,98.94,99.11,98.94,99.11, 2274
03/10/2020,17:25,99.11,99.11,98.85,98.85, 2913
03/10/2020,17:26,98.82,99,98.82,98.82, 2018
03/10/2020,17:27,98.84,98.98,98.55,98.55, 3278
03/10/2020,17:29,98.52,98.76,98.46,98.73, 4455
03/10/2020,17:30,98.72,98.74,98.5,98.74, 6164
03/10/2020,17:31,98.61,98.7,98.46,98.46, 791
03/10/2020,17:32,98.59,98.59,98.38,98.38, 4496
03/10/2020,17:33,98.29,98.32,98.14,98.16, 4434
03/10/2020,17:35,98.2,98.23,97.98,98, 6165
03/10/2020,17:36,98.05,98.14,97.69,97.86, 6458
03/10/2020,17:38,97.89,98.07,97.89,98.05, 10880
03/10/2020,17:39,98.05,98.27,98.03,98.24, 3962
03/10/2020,17:41,98.26,98.44,98.22,98.3, 2222
03/10/2020,17:42,98.28,98.3,98.03,98.04, 2627
03/10/2020,17:44,98.06,98.3,97.96,98.3, 4696
03/10/2020,17:46,98.3,98.63,98.27,98.62, 29602
03/10/2020,17:47,98.58,98.63,98.34,98.42, 6206
03/10/2020,17:49,98.42,98.7,98.36,98.56, 4050
03/10/2020,17:51,98.65,98.66,98.51,98.62, 6482
03/10/2020,17:53,98.52,98.77,98.47,98.64, 6115
03/10/2020,17:55,98.68,99.01,98.68,99.01, 6883
03/10/2020,17:57,99.03,99.1,98.92,98.97, 6527
03/10/2020,17:58,98.96,99.15,98.94,99.06, 2963
03/10/2020,18:00,99.1,99.27,98.97,98.99, 5918
03/10/2020,18:02,98.9,98.9,98.65,98.68, 3882
03/10/2020,18:04,98.67,98.7,98.42,98.52, 3656
03/10/2020,18:05,98.52,98.79,98.42,98.79, 3363
03/10/2020,18:07,98.82,98.89,98.65,98.7, 6110
03/10/2020,18:09,98.7,99.07,98.66,99.07, 10218
03/10/2020,18:11,99.14,99.53,99.14,99.45, 4000
03/10/2020,18:12,99.52,99.54,99.13,99.23, 5578
03/10/2020,18:13,99.24,99.38,99.2,99.25, 2800
03/10/2020,18:15,99.26,99.68,99.25,99.68, 5274
03/10/2020,18:17,99.75,100.02,99.61,99.61, 4815
03/10/2020,18:19,99.51,99.95,99.5,99.92, 14513
03/10/2020,18:20,99.9,99.9,99.66,99.68, 11286
03/10/2020,18:22,99.69,100.11,99.69,99.88, 21863
03/10/2020,18:24,99.97,100,99.79,99.9, 11394
03/10/2020,18:26,99.98,100.05,99.59,99.59, 9415
03/10/2020,18:28,99.58,99.67,99.48,99.61, 5539
03/10/2020,18:30,99.63,99.7,99.56,99.69, 6413
03/10/2020,18:31,99.7,99.79,99.55,99.7, 7300
03/10/2020,18:33,99.69,99.7,99.51,99.58, 6558
03/10/2020,18:35,99.54,99.75,99.51,99.63, 15038
03/10/2020,18:36,99.64,99.8,99.49,99.53, 10426
03/10/2020,18:37,99.57,99.66,99.55,99.55, 2801
03/10/2020,18:38,99.49,99.53,99.41,99.49, 3487
03/10/2020,18:39,99.48,99.63,99.47,99.5, 2501
03/10/2020,18:40,99.51,99.51,99.07,99.25, 3327
03/10/2020,18:41,99.25,99.48,99.25,99.28, 2327
03/10/2020,18:42,99.25,99.33,99.09,99.09, 1622
03/10/2020,18:43,99.03,99.25,99.02,99.25, 1500
03/10/2020,18:44,99.23,99.39,99.22,99.33, 4222
03/10/2020,18:45,99.32,99.36,99.17,99.22, 2564
03/10/2020,18:46,99.18,99.2,99.09,99.09, 1800
03/10/2020,18:47,98.97,98.97,98.79,98.79, 1995
03/10/2020,18:48,98.85,98.95,98.71,98.78, 1974
03/10/2020,18:49,98.76,98.87,98.76,98.8, 1700
03/10/2020,18:50,98.82,98.89,98.73,98.73, 2375
03/10/2020,18:51,98.81,98.85,98.71,98.85, 4640
03/10/2020,18:52,98.82,98.82,98.59,98.62, 1200
03/10/2020,18:53,98.64,98.67,98.59,98.67, 3221
03/10/2020,18:54,98.68,98.72,98.44,98.44, 4271
03/10/2020,18:55,98.43,98.54,98.34,98.49, 2791
03/10/2020,18:56,98.54,98.59,98.49,98.53, 3184
03/10/2020,18:57,98.57,98.57,98.39,98.39, 1400
03/10/2020,18:58,98.36,98.56,98.35,98.55, 1900
03/10/2020,18:59,98.48,98.71,98.45,98.66, 2251
03/10/2020,19:00,98.69,98.75,98.6,98.72, 1300
03/10/2020,19:01,98.67,98.72,98.49,98.49, 2100
03/10/2020,19:02,98.48,98.63,98.47,98.57, 3364
03/10/2020,19:03,98.58,98.78,98.54,98.68, 2042
03/10/2020,19:04,98.67,98.82,98.63,98.77, 3663
03/10/2020,19:05,98.78,99,98.78,98.83, 10751
03/10/2020,19:06,98.87,98.99,98.86,98.99, 3800
03/10/2020,19:07,98.91,99.2,98.81,99.16, 4900
03/10/2020,19:08,99.1,99.17,98.85,98.96, 2600
03/10/2020,19:09,98.92,99.08,98.92,99.08, 934
03/10/2020,19:10,99.09,99.25,99.08,99.2, 4215
03/10/2020,19:11,99.25,99.25,99.12,99.23, 2602
03/10/2020,19:12,99.25,99.3,99.18,99.19, 7720
03/10/2020,19:13,99.22,99.34,99.22,99.34, 2086
