01/02/2020,15:31,84.32,84.32,84.32,84.32, 29224
01/02/2020,15:31,84.36,84.5,84.36,84.5, 515
01/02/2020,15:33,84.25,84.31,84.15,84.31, 4358
01/02/2020,15:34,84.35,84.35,84.1,84.19, 6464
01/02/2020,15:35,84.25,84.29,84.07,84.07, 1514
01/02/2020,15:36,84.09,84.09,83.93,83.93, 8928
01/02/2020,15:37,83.93,84.13,83.87,84.06, 9867
01/02/2020,15:37,84.07,84.23,84.07,84.18, 2921
01/02/2020,15:39,84.15,84.25,84.13,84.19, 6616
01/02/2020,15:39,84.19,84.19,84.14,84.17, 1872
01/02/2020,15:41,84.26,84.34,84.22,84.34, 2035
01/02/2020,15:42,84.36,84.41,84.2,84.21, 4860
01/02/2020,15:43,84.24,84.29,84.22,84.27, 3800
01/02/2020,15:44,84.26,84.28,84.1,84.1, 10760
01/02/2020,15:45,84.09,84.13,83.9,83.93, 12945
01/02/2020,15:46,83.97,83.97,83.77,83.81, 11845
01/02/2020,15:47,83.79,83.85,83.74,83.78, 1500
01/02/2020,15:48,83.76,83.86,83.72,83.72, 4850
01/02/2020,15:49,83.74,83.77,83.7,83.74, 10266
01/02/2020,15:50,83.74,83.78,83.72,83.76, 4970
01/02/2020,15:51,83.78,83.89,83.66,83.66, 16304
01/02/2020,15:52,83.65,83.76,83.65,83.74, 6609
01/02/2020,15:53,83.77,83.85,83.76,83.83, 8828
01/02/2020,15:54,83.8,83.92,83.8,83.82, 5116
01/02/2020,15:55,83.79,83.82,83.76,83.78, 2912
01/02/2020,15:56,83.79,83.98,83.79,83.98, 3742
01/02/2020,15:57,83.94,84.07,83.9,83.96, 7123
01/02/2020,15:58,83.93,84.05,83.93,84.05, 4668
01/02/2020,15:59,84.1,84.12,84.05,84.1, 10419
01/02/2020,16:00,84.06,84.1,84.06,84.08, 7244
01/02/2020,16:01,84.06,84.09,84,84.09, 2800
01/02/2020,16:02,83.98,84,83.91,83.92, 6868
01/02/2020,16:03,83.92,83.92,83.83,83.83, 909
01/02/2020,16:04,83.71,83.73,83.65,83.73, 1800
01/02/2020,16:05,83.72,83.81,83.72,83.78, 4200
01/02/2020,16:06,83.76,83.84,83.76,83.78, 2900
01/02/2020,16:07,83.82,83.88,83.8,83.8, 5825
01/02/2020,16:08,83.82,84.06,83.82,83.98, 7900
01/02/2020,16:09,83.99,84.1,83.99,84.1, 1100
01/02/2020,16:10,84.09,84.14,84.09,84.14, 300
01/02/2020,16:11,84.17,84.17,84.06,84.13, 5995
01/02/2020,16:12,84.12,84.27,84.1,84.12, 8290
01/02/2020,16:13,84.07,84.13,83.97,84.04, 4892
01/02/2020,16:14,84.02,84.04,83.95,84, 8289
01/02/2020,16:15,84,84.09,84,84.06, 2622
01/02/2020,16:16,84.03,84.03,83.9,83.93, 3500
01/02/2020,16:17,83.93,83.95,83.79,83.86, 11591
01/02/2020,16:18,83.86,83.91,83.82,83.91, 4038
01/02/2020,16:19,83.94,84,83.84,83.86, 9518
01/02/2020,16:20,83.89,84.05,83.87,84.04, 3578
01/02/2020,16:21,84.02,84.09,84,84.04, 10316
01/02/2020,16:22,84.02,84.06,84.01,84.06, 2028
01/02/2020,16:23,84.06,84.06,84,84.04, 7184
01/02/2020,16:24,84.02,84.02,83.84,83.86, 10620
01/02/2020,16:25,83.85,83.93,83.8,83.8, 16260
01/02/2020,16:26,83.81,83.96,83.81,83.95, 2719
01/02/2020,16:27,83.94,83.95,83.88,83.9, 5110
01/02/2020,16:28,83.91,84,83.87,83.98, 12753
01/02/2020,16:29,83.96,83.97,83.9,83.94, 5928
01/02/2020,16:30,83.91,83.93,83.82,83.93, 5021
01/02/2020,16:31,83.93,84,83.88,83.9, 7422
01/02/2020,16:32,83.9,83.93,83.87,83.88, 5862
01/02/2020,16:33,83.89,83.94,83.82,83.84, 4554
01/02/2020,16:34,83.83,83.86,83.76,83.84, 3715
01/02/2020,16:35,83.84,83.87,83.78,83.79, 1205
01/02/2020,16:36,83.79,83.79,83.73,83.73, 2766
01/02/2020,16:37,83.73,83.82,83.73,83.75, 6237
01/02/2020,16:38,83.74,83.83,83.73,83.83, 6090
01/02/2020,16:39,83.83,83.9,83.81,83.88, 15214
01/02/2020,16:40,83.89,83.94,83.81,83.94, 8300
01/02/2020,16:41,83.95,83.95,83.86,83.91, 2385
01/02/2020,16:42,83.88,83.97,83.88,83.97, 2142
01/02/2020,16:43,84,84,83.88,83.88, 7872
01/02/2020,16:44,83.88,84,83.88,83.99, 6393
01/02/2020,16:45,83.93,83.93,83.86,83.89, 1600
01/02/2020,16:46,83.89,83.97,83.89,83.95, 2540
01/02/2020,16:47,84,84.07,83.97,84.07, 11132
01/02/2020,16:48,84.1,84.18,84.06,84.16, 2100
01/02/2020,16:49,84.15,84.31,84.15,84.25, 10181
01/02/2020,16:50,84.23,84.36,84.23,84.34, 2175
01/02/2020,16:51,84.36,84.39,84.34,84.36, 1472
01/02/2020,16:52,84.34,84.46,84.34,84.46, 2424
01/02/2020,16:53,84.46,84.47,84.38,84.38, 4799
01/02/2020,16:54,84.4,84.48,84.4,84.48, 4087
01/02/2020,16:55,84.47,84.61,84.47,84.52, 9754
01/02/2020,16:56,84.55,84.55,84.47,84.47, 12191
01/02/2020,16:57,84.49,84.49,84.42,84.45, 2275
01/02/2020,16:58,84.44,84.44,84.31,84.39, 4301
01/02/2020,16:59,84.4,84.4,84.3,84.35, 4267
01/02/2020,17:00,84.35,84.41,84.33,84.35, 8937
01/02/2020,17:01,84.38,84.39,84.3,84.35, 11778
01/02/2020,17:02,84.36,84.44,84.35,84.35, 21285
01/02/2020,17:03,84.3,84.31,84.23,84.23, 3642
01/02/2020,17:04,84.26,84.27,84.12,84.13, 4771
01/02/2020,17:05,84.13,84.13,84.04,84.13, 4438
01/02/2020,17:06,84.13,84.13,84.09,84.12, 2350
01/02/2020,17:07,84.11,84.11,83.99,83.99, 4739
01/02/2020,17:08,83.98,84.06,83.97,84.06, 8163
01/02/2020,17:09,84.01,84.02,83.94,83.96, 2321
01/02/2020,17:10,83.96,83.99,83.89,83.95, 9393
01/02/2020,17:11,83.94,84.03,83.94,84.02, 10416
01/02/2020,17:12,84,84.02,83.94,84, 9642
01/02/2020,17:13,84.02,84.02,83.98,83.98, 4363
01/02/2020,17:14,83.98,84.02,83.96,83.96, 3200
01/02/2020,17:15,83.95,84,83.93,84, 3514
01/02/2020,17:16,83.98,84.08,83.98,84.05, 4357
01/02/2020,17:17,84.03,84.05,84,84.05, 2100
01/02/2020,17:18,84.07,84.08,83.95,83.98, 6540
01/02/2020,17:19,83.96,84.05,83.95,84, 7695
01/02/2020,17:20,84.01,84.06,84,84.05, 6512
01/02/2020,17:21,84.02,84.02,83.95,83.96, 21656
01/02/2020,17:22,83.96,84,83.93,83.95, 7180
01/02/2020,17:23,83.94,83.95,83.81,83.84, 3936
01/02/2020,17:24,83.85,84,83.85,84, 3726
01/02/2020,17:25,84.01,84.05,84.01,84.04, 1525
01/02/2020,17:26,84.07,84.09,83.94,83.94, 3000
01/02/2020,17:27,83.92,83.97,83.83,83.87, 2650
01/02/2020,17:28,83.88,83.95,83.88,83.95, 900
01/02/2020,17:29,83.9,83.93,83.85,83.93, 1794
01/02/2020,17:30,83.89,83.89,83.82,83.82, 2118
01/02/2020,17:31,83.84,83.85,83.73,83.73, 2125
01/02/2020,17:32,83.76,83.77,83.66,83.69, 3800
01/02/2020,17:33,83.69,83.71,83.63,83.7, 6043
01/02/2020,17:34,83.68,83.75,83.67,83.69, 12798
01/02/2020,17:35,83.69,83.71,83.64,83.64, 3619
01/02/2020,17:36,83.65,83.67,83.59,83.65, 7340
01/02/2020,17:37,83.65,83.67,83.62,83.62, 5913
01/02/2020,17:38,83.66,83.7,83.65,83.7, 10358
01/02/2020,17:39,83.7,83.8,83.7,83.8, 7596
01/02/2020,17:40,83.83,83.85,83.8,83.81, 4027
01/02/2020,17:41,83.8,83.82,83.78,83.78, 3380
01/02/2020,17:42,83.83,83.86,83.82,83.85, 3368
01/02/2020,17:43,83.84,83.85,83.74,83.74, 4647
01/02/2020,17:44,83.74,83.75,83.69,83.7, 3031
01/02/2020,17:45,83.71,83.75,83.69,83.72, 14156
01/02/2020,17:46,83.75,83.75,83.66,83.68, 5082
01/02/2020,17:47,83.67,83.67,83.62,83.62, 600
01/02/2020,17:48,83.62,83.63,83.54,83.6, 3303
01/02/2020,17:49,83.58,83.62,83.58,83.62, 1104
01/02/2020,17:50,83.62,83.62,83.6,83.62, 618
01/02/2020,17:51,83.59,83.64,83.59,83.64, 1040
01/02/2020,17:52,83.69,83.72,83.67,83.72, 2247
01/02/2020,17:53,83.7,83.72,83.69,83.72, 1764
01/02/2020,17:54,83.69,83.74,83.69,83.72, 500
01/02/2020,17:55,83.76,83.76,83.71,83.73, 1161
01/02/2020,17:56,83.73,83.73,83.66,83.68, 1250
01/02/2020,17:57,83.68,83.78,83.68,83.78, 2926
01/02/2020,17:58,83.78,83.8,83.75,83.8, 962
01/02/2020,17:59,83.82,83.85,83.79,83.83, 2815
01/02/2020,18:00,83.82,83.89,83.82,83.88, 8022
01/02/2020,18:01,83.88,83.98,83.87,83.89, 9331
01/02/2020,18:02,83.89,83.89,83.79,83.79, 5876
01/02/2020,18:03,83.77,83.95,83.77,83.95, 2133
01/02/2020,18:04,83.94,83.97,83.94,83.96, 1635
01/02/2020,18:05,83.96,83.98,83.94,83.95, 2998
01/02/2020,18:06,83.94,83.94,83.9,83.94, 4568
01/02/2020,18:07,83.9,83.93,83.9,83.93, 1225
01/02/2020,18:08,83.93,84,83.93,84, 3248
01/02/2020,18:09,84.01,84.06,84.01,84.06, 1801
01/02/2020,18:10,84.07,84.09,84.04,84.04, 5196
01/02/2020,18:11,84.05,84.06,84.03,84.04, 2411
01/02/2020,18:12,84.04,84.1,84.01,84.1, 2597
01/02/2020,18:13,84.08,84.09,84.04,84.05, 2397
01/02/2020,18:13,84.03,84.05,84.02,84.02, 910
01/02/2020,18:15,84.01,84.01,83.96,83.99, 2430
01/02/2020,18:15,83.98,83.98,83.95,83.95, 800
01/02/2020,18:17,83.91,83.98,83.91,83.95, 3460
01/02/2020,18:18,83.93,83.96,83.91,83.95, 2276
01/02/2020,18:19,83.88,83.91,83.88,83.91, 601
01/02/2020,18:20,83.89,83.92,83.86,83.9, 1964
01/02/2020,18:21,83.9,83.91,83.9,83.91, 598
01/02/2020,18:22,83.92,83.95,83.91,83.91, 1427
01/02/2020,18:23,83.91,83.98,83.91,83.98, 1621
01/02/2020,18:24,83.99,84,83.95,83.97, 4014
01/02/2020,18:25,83.96,83.98,83.94,83.98, 1828
01/02/2020,18:26,83.95,84,83.93,84, 1204
01/02/2020,18:27,84,84,83.93,83.93, 1099
01/02/2020,18:27,83.93,83.93,83.93,83.93, 151
01/02/2020,18:29,83.94,83.94,83.89,83.93, 1695
01/02/2020,18:30,83.96,83.96,83.96,83.96, 100
01/02/2020,18:31,83.92,83.95,83.9,83.95, 1025
01/02/2020,18:32,83.95,83.96,83.94,83.96, 600
01/02/2020,18:33,83.95,83.98,83.95,83.98, 735
01/02/2020,18:34,83.98,84,83.98,84, 254
01/02/2020,18:35,83.97,84.01,83.97,84, 2154
01/02/2020,18:36,83.97,83.99,83.92,83.92, 6396
01/02/2020,18:37,83.92,83.93,83.89,83.92, 2011
01/02/2020,18:38,83.92,83.96,83.92,83.96, 906
01/02/2020,18:39,83.98,84.02,83.93,83.94, 2173
01/02/2020,18:40,83.96,83.96,83.91,83.95, 1097
01/02/2020,18:41,83.97,83.99,83.95,83.96, 700
01/02/2020,18:42,83.97,84.01,83.95,83.99, 1808
01/02/2020,18:43,84,84.01,84,84, 2084
01/02/2020,18:44,83.98,84.03,83.98,84.03, 1582
01/02/2020,18:45,84,84,83.95,83.97, 2003
01/02/2020,18:46,83.96,83.98,83.95,83.97, 1200
01/02/2020,18:47,83.95,83.96,83.93,83.94, 2219
01/02/2020,18:48,83.96,83.96,83.91,83.91, 900
01/02/2020,18:49,83.91,83.99,83.91,83.95, 900
01/02/2020,18:50,83.96,84.01,83.96,84.01, 1108
01/02/2020,18:51,84.01,84.02,84,84.01, 1549
01/02/2020,18:52,84,84,84,84, 100
01/02/2020,18:53,83.98,84.01,83.97,84.01, 992
01/02/2020,18:54,83.99,84.01,83.97,83.97, 908
01/02/2020,18:55,83.97,83.97,83.9,83.9, 1355
01/02/2020,18:56,83.92,83.92,83.91,83.91, 331
01/02/2020,18:57,83.85,83.88,83.84,83.88, 2355
01/02/2020,18:58,83.86,83.88,83.86,83.88, 1110
01/02/2020,18:59,83.89,83.89,83.84,83.85, 950
01/02/2020,19:00,83.88,83.93,83.88,83.91, 654
01/02/2020,19:01,83.93,83.94,83.92,83.94, 1900
01/02/2020,19:02,83.84,83.84,83.82,83.82, 1100
01/02/2020,19:03,83.84,83.86,83.83,83.86, 3311
01/02/2020,19:04,83.85,83.88,83.85,83.88, 753
01/02/2020,19:04,83.9,83.92,83.9,83.92, 840
01/02/2020,19:05,83.88,83.9,83.88,83.9, 300
01/02/2020,19:07,83.85,83.85,83.81,83.81, 8800
01/02/2020,19:08,83.79,83.8,83.77,83.78, 1500
01/02/2020,19:09,83.79,83.81,83.78,83.81, 740
01/02/2020,19:10,83.8,83.8,83.77,83.78, 2196
01/02/2020,19:11,83.79,83.8,83.79,83.8, 744
01/02/2020,19:12,83.79,83.8,83.79,83.79, 652
01/02/2020,19:13,83.8,83.82,83.77,83.81, 1894
01/02/2020,19:14,83.8,83.84,83.8,83.84, 500
01/02/2020,19:15,83.84,83.85,83.83,83.84, 1256
01/02/2020,19:16,83.82,83.86,83.81,83.84, 42692
01/02/2020,19:17,83.84,83.84,83.75,83.8, 4583
01/02/2020,19:18,83.79,83.8,83.79,83.79, 2209
01/02/2020,19:19,83.78,83.78,83.77,83.78, 856
01/02/2020,19:20,83.78,83.78,83.76,83.76, 704
01/02/2020,19:21,83.77,83.8,83.77,83.79, 2366
01/02/2020,19:22,83.8,83.82,83.78,83.8, 4100
01/02/2020,19:23,83.8,83.81,83.77,83.77, 2881
01/02/2020,19:24,83.76,83.8,83.75,83.79, 3579
01/02/2020,19:25,83.79,83.81,83.75,83.75, 4824
01/02/2020,19:26,83.78,83.81,83.73,83.73, 5640
01/02/2020,19:27,83.74,83.74,83.72,83.74, 2190
01/02/2020,19:28,83.73,83.76,83.73,83.76, 2124
01/02/2020,19:29,83.78,83.8,83.77,83.78, 1585
01/02/2020,19:30,83.79,83.79,83.76,83.78, 3700
01/02/2020,19:31,83.77,83.84,83.76,83.84, 2019
01/02/2020,19:32,83.86,83.87,83.84,83.85, 2891
01/02/2020,19:33,83.84,83.85,83.84,83.84, 2048
01/02/2020,19:34,83.85,83.85,83.8,83.8, 2826
01/02/2020,19:35,83.79,83.79,83.76,83.77, 801
01/02/2020,19:35,83.74,83.75,83.72,83.75, 1174
01/02/2020,19:36,83.77,83.77,83.76,83.76, 525
01/02/2020,19:37,83.75,83.78,83.75,83.77, 1138
01/02/2020,19:39,83.78,83.8,83.78,83.8, 2101
01/02/2020,19:40,83.81,83.84,83.81,83.84, 1615
01/02/2020,19:41,83.83,83.84,83.8,83.84, 5511
01/02/2020,19:41,83.81,83.81,83.81,83.81, 100
01/02/2020,19:43,83.78,83.8,83.76,83.8, 2600
01/02/2020,19:43,83.8,83.8,83.79,83.8, 400
01/02/2020,19:45,83.79,83.79,83.77,83.77, 500
01/02/2020,19:46,83.75,83.77,83.73,83.76, 2357
01/02/2020,19:46,83.75,83.75,83.73,83.73, 600
01/02/2020,19:48,83.74,83.75,83.71,83.75, 1292
01/02/2020,19:49,83.74,83.79,83.74,83.79, 627
01/02/2020,19:50,83.79,83.79,83.79,83.79, 200
01/02/2020,19:51,83.82,83.82,83.8,83.8, 1501
01/02/2020,19:52,83.82,83.83,83.79,83.83, 1215
01/02/2020,19:52,83.82,83.82,83.81,83.81, 200
01/02/2020,19:54,83.82,83.86,83.82,83.86, 1101
01/02/2020,19:55,83.87,83.88,83.86,83.88, 1079
01/02/2020,19:56,83.85,83.87,83.82,83.87, 7589
01/02/2020,19:57,83.9,83.92,83.89,83.91, 1358
01/02/2020,19:58,83.92,83.92,83.88,83.89, 3091
01/02/2020,19:59,83.89,83.94,83.88,83.94, 2602
01/02/2020,20:00,83.94,83.96,83.89,83.9, 9259
01/02/2020,20:01,83.88,83.9,83.82,83.82, 1900
01/02/2020,20:01,83.81,83.82,83.8,83.82, 303
01/02/2020,20:03,83.81,83.84,83.81,83.84, 1103
01/02/2020,20:04,83.84,83.84,83.8,83.8, 700
01/02/2020,20:05,83.83,83.83,83.81,83.81, 600
01/02/2020,20:06,83.82,83.84,83.8,83.83, 1144
01/02/2020,20:07,83.82,83.83,83.79,83.83, 2490
01/02/2020,20:07,83.86,83.86,83.86,83.86, 369
01/02/2020,20:09,83.87,83.87,83.85,83.86, 1501
01/02/2020,20:10,83.87,83.92,83.87,83.92, 900
01/02/2020,20:11,83.92,83.94,83.91,83.94, 2110
01/02/2020,20:12,83.93,83.93,83.9,83.9, 3636
01/02/2020,20:13,83.92,83.93,83.87,83.87, 2902
01/02/2020,20:14,83.82,83.88,83.82,83.88, 800
01/02/2020,20:15,83.88,83.88,83.87,83.88, 400
01/02/2020,20:16,83.91,83.91,83.88,83.88, 1410
01/02/2020,20:17,83.89,83.89,83.82,83.82, 2072
01/02/2020,20:17,83.8,83.8,83.78,83.8, 1335
01/02/2020,20:19,83.8,83.8,83.76,83.78, 2620
01/02/2020,20:20,83.78,83.81,83.76,83.81, 2050
01/02/2020,20:21,83.81,83.85,83.81,83.82, 2759
01/02/2020,20:22,83.81,83.87,83.81,83.87, 4686
01/02/2020,20:23,83.85,83.89,83.84,83.89, 2106
01/02/2020,20:24,83.88,83.88,83.86,83.88, 1000
01/02/2020,20:25,83.88,83.91,83.88,83.91, 2248
01/02/2020,20:26,83.91,83.91,83.86,83.88, 2502
01/02/2020,20:27,83.88,83.88,83.81,83.81, 1012
01/02/2020,20:28,83.81,83.83,83.76,83.76, 1500
01/02/2020,20:29,83.77,83.81,83.77,83.81, 2622
01/02/2020,20:30,83.85,83.87,83.85,83.87, 1986
01/02/2020,20:31,83.89,83.89,83.84,83.84, 400
01/02/2020,20:32,83.85,83.86,83.83,83.83, 1755
01/02/2020,20:33,83.85,83.88,83.85,83.86, 1801
01/02/2020,20:34,83.89,83.89,83.85,83.85, 3963
01/02/2020,20:35,83.84,83.85,83.82,83.83, 2364
01/02/2020,20:36,83.83,83.87,83.83,83.86, 1884
01/02/2020,20:37,83.85,83.87,83.84,83.85, 2100
01/02/2020,20:38,83.87,83.88,83.81,83.82, 4134
01/02/2020,20:39,83.85,83.87,83.85,83.87, 1155
01/02/2020,20:40,83.87,83.9,83.85,83.9, 2161
01/02/2020,20:41,83.9,83.9,83.87,83.89, 1800
01/02/2020,20:41,83.9,83.97,83.9,83.97, 774
01/02/2020,20:43,83.97,83.97,83.92,83.95, 2700
01/02/2020,20:44,83.96,84,83.96,83.98, 3052
01/02/2020,20:45,83.99,83.99,83.97,83.97, 1305
01/02/2020,20:46,83.99,84.04,83.98,84.01, 2514
01/02/2020,20:47,83.97,83.99,83.95,83.97, 2178
01/02/2020,20:48,83.96,83.98,83.93,83.97, 6615
01/02/2020,20:48,83.97,83.97,83.91,83.93, 1600
01/02/2020,20:50,83.9,83.9,83.85,83.88, 1300
01/02/2020,20:51,83.87,83.9,83.87,83.9, 1540
01/02/2020,20:52,83.91,83.93,83.91,83.92, 1664
01/02/2020,20:53,83.94,83.94,83.89,83.89, 1650
01/02/2020,20:54,83.91,83.93,83.91,83.92, 5070
01/02/2020,20:55,83.92,83.97,83.91,83.97, 19270
01/02/2020,20:56,83.93,83.94,83.91,83.91, 2100
01/02/2020,20:57,83.91,83.93,83.9,83.92, 1281
01/02/2020,20:58,83.92,83.92,83.91,83.92, 818
01/02/2020,20:59,83.91,83.91,83.84,83.85, 1704
01/02/2020,21:00,83.86,83.86,83.8,83.8, 2550
01/02/2020,21:01,83.82,83.83,83.77,83.77, 4539
01/02/2020,21:02,83.78,83.82,83.78,83.82, 1700
01/02/2020,21:03,83.82,83.83,83.8,83.8, 900
01/02/2020,21:04,83.83,83.87,83.83,83.86, 2875
01/02/2020,21:05,83.87,83.87,83.84,83.86, 900
01/02/2020,21:06,83.87,83.87,83.79,83.8, 2100
01/02/2020,21:07,83.81,83.83,83.8,83.82, 2449
01/02/2020,21:07,83.83,83.86,83.83,83.84, 1200
01/02/2020,21:09,83.84,83.87,83.8,83.81, 10646
01/02/2020,21:10,83.81,83.81,83.79,83.81, 919
01/02/2020,21:11,83.82,83.85,83.82,83.85, 933
01/02/2020,21:12,83.85,83.85,83.82,83.83, 1719
01/02/2020,21:13,83.85,83.87,83.84,83.87, 1196
01/02/2020,21:14,83.87,83.87,83.8,83.83, 2253
01/02/2020,21:15,83.84,83.84,83.82,83.83, 1313
01/02/2020,21:16,83.82,83.85,83.82,83.85, 1139
01/02/2020,21:17,83.83,83.85,83.81,83.83, 2339
01/02/2020,21:18,83.84,83.84,83.81,83.84, 3419
01/02/2020,21:19,83.83,83.84,83.81,83.82, 2400
01/02/2020,21:20,83.82,83.83,83.77,83.78, 2181
01/02/2020,21:21,83.79,83.8,83.78,83.8, 1300
01/02/2020,21:22,83.84,83.87,83.83,83.85, 2300
01/02/2020,21:23,83.86,83.91,83.86,83.88, 1031
01/02/2020,21:24,83.9,83.92,83.88,83.88, 1882
01/02/2020,21:25,83.89,83.9,83.85,83.85, 1580
01/02/2020,21:26,83.87,83.88,83.84,83.85, 3252
01/02/2020,21:27,83.85,83.88,83.84,83.88, 3780
01/02/2020,21:28,83.87,83.91,83.87,83.91, 1005
01/02/2020,21:29,83.91,83.92,83.9,83.92, 1233
01/02/2020,21:29,83.9,83.93,83.9,83.92, 400
01/02/2020,21:31,83.91,83.96,83.91,83.94, 1585
01/02/2020,21:32,83.93,83.93,83.91,83.92, 3182
01/02/2020,21:33,83.91,83.91,83.9,83.9, 492
01/02/2020,21:34,83.91,83.93,83.9,83.93, 3323
01/02/2020,21:35,83.93,83.93,83.91,83.93, 1762
01/02/2020,21:36,83.93,83.95,83.87,83.87, 1980
01/02/2020,21:37,83.89,83.9,83.87,83.89, 2500
01/02/2020,21:38,83.9,83.9,83.86,83.86, 2353
01/02/2020,21:39,83.87,83.92,83.86,83.92, 2974
01/02/2020,21:40,83.94,83.94,83.89,83.9, 2585
01/02/2020,21:41,83.9,83.91,83.9,83.91, 1210
01/02/2020,21:42,83.89,83.9,83.86,83.86, 1807
01/02/2020,21:43,83.86,83.89,83.86,83.89, 3777
01/02/2020,21:44,83.89,83.9,83.87,83.89, 2808
01/02/2020,21:45,83.88,83.91,83.86,83.9, 5208
01/02/2020,21:46,83.89,83.89,83.84,83.85, 3927
01/02/2020,21:47,83.85,83.88,83.84,83.88, 7506
01/02/2020,21:48,83.89,83.93,83.89,83.91, 10138
01/02/2020,21:49,83.92,83.93,83.89,83.9, 3563
01/02/2020,21:50,83.9,83.9,83.87,83.87, 2556
01/02/2020,21:51,83.86,83.93,83.86,83.9, 6253
01/02/2020,21:52,83.9,83.9,83.86,83.9, 4829
01/02/2020,21:53,83.9,83.94,83.9,83.92, 4300
01/02/2020,21:54,83.91,83.96,83.9,83.94, 6661
01/02/2020,21:55,83.94,84,83.92,84, 4556
01/02/2020,21:56,84.01,84.03,83.98,84.02, 6198
01/02/2020,21:57,84.02,84.09,84.02,84.08, 7724
01/02/2020,21:58,84.07,84.14,84.07,84.11, 9962
01/02/2020,21:59,84.11,84.14,84.09,84.12, 7655
01/02/2020,22:00,84.12,84.13,84.09,84.13, 12747
01/02/2020,22:01,84.14,84.15,84.07,84.15, 11760
01/02/2020,22:01,84.14,84.14,84.14,84.14, 200891
01/03/2020,15:31,85.58,85.89,85.55,85.89, 44925
01/03/2020,15:32,85.89,86.64,85.84,86.49, 14950
01/03/2020,15:32,86.46,86.85,86.46,86.69, 37006
01/03/2020,15:34,86.65,86.82,86.45,86.52, 13759
01/03/2020,15:35,86.51,86.68,86.22,86.39, 9180
01/03/2020,15:36,86.45,86.45,85.96,85.96, 4383
01/03/2020,15:37,85.91,85.91,85.59,85.72, 6099
01/03/2020,15:38,85.66,85.66,85.3,85.49, 14459
01/03/2020,15:39,85.63,85.63,85.44,85.56, 5225
01/03/2020,15:39,85.51,85.53,85.2,85.28, 5065
01/03/2020,15:40,85.38,85.42,85.15,85.24, 2059
01/03/2020,15:42,85.26,85.38,85.24,85.33, 5910
01/03/2020,15:43,85.28,85.28,85.1,85.11, 3219
01/03/2020,15:44,85.17,85.35,85.16,85.25, 7770
01/03/2020,15:44,85.3,85.47,85.19,85.46, 4624
01/03/2020,15:46,85.38,85.62,85.35,85.6, 7115
01/03/2020,15:47,85.62,85.7,85.45,85.7, 13548
01/03/2020,15:48,85.68,85.74,85.54,85.68, 11032
01/03/2020,15:49,85.68,85.85,85.63,85.74, 6926
01/03/2020,15:50,85.72,85.75,85.62,85.71, 7894
01/03/2020,15:51,85.76,85.78,85.68,85.7, 11481
01/03/2020,15:52,85.69,85.85,85.69,85.84, 6037
01/03/2020,15:53,85.8,85.83,85.59,85.59, 13476
01/03/2020,15:54,85.6,85.61,85.48,85.54, 9371
01/03/2020,15:55,85.52,85.59,85.52,85.57, 2600
01/03/2020,15:56,85.54,85.62,85.51,85.59, 4211
01/03/2020,15:56,85.57,85.59,85.5,85.55, 3142
01/03/2020,15:58,85.53,85.53,85.41,85.51, 7507
01/03/2020,15:59,85.54,85.56,85.44,85.5, 9426
01/03/2020,16:00,85.48,85.53,85.47,85.47, 10690
01/03/2020,16:00,85.47,85.47,85.34,85.34, 4110
01/03/2020,16:01,85.31,85.38,85.27,85.35, 3637
01/03/2020,16:03,85.44,85.44,85.28,85.32, 6463
01/03/2020,16:03,85.28,85.28,85.14,85.14, 1401
01/03/2020,16:04,85.14,85.25,85.08,85.25, 2096
01/03/2020,16:06,85.28,85.33,85.21,85.21, 2330
01/03/2020,16:06,85.21,85.28,85.18,85.2, 3460
01/03/2020,16:08,85.34,85.49,85.34,85.36, 1991
01/03/2020,16:09,85.38,85.48,85.33,85.46, 4104
01/03/2020,16:09,85.45,85.45,85.27,85.27, 3663
01/03/2020,16:10,85.26,85.41,85.26,85.41, 5456
01/03/2020,16:12,85.39,85.66,85.37,85.49, 21388
01/03/2020,16:13,85.48,85.53,85.45,85.45, 3844
01/03/2020,16:14,85.5,85.59,85.49,85.57, 10262
01/03/2020,16:15,85.57,85.57,85.5,85.57, 5979
01/03/2020,16:16,85.53,85.7,85.53,85.7, 8900
01/03/2020,16:17,85.73,85.73,85.65,85.65, 10202
01/03/2020,16:18,85.66,85.7,85.54,85.54, 5008
01/03/2020,16:19,85.56,85.68,85.56,85.56, 5043
01/03/2020,16:20,85.56,85.58,85.46,85.56, 18593
01/03/2020,16:21,85.56,85.62,85.53,85.55, 7704
01/03/2020,16:22,85.54,85.54,85.39,85.39, 3378
01/03/2020,16:23,85.45,85.47,85.37,85.47, 5711
01/03/2020,16:24,85.46,85.46,85.35,85.39, 3182
01/03/2020,16:25,85.39,85.49,85.39,85.47, 5775
01/03/2020,16:26,85.49,85.52,85.45,85.45, 2645
01/03/2020,16:27,85.46,85.5,85.33,85.34, 10451
01/03/2020,16:28,85.31,85.35,85.28,85.34, 3700
01/03/2020,16:29,85.33,85.42,85.33,85.4, 2100
01/03/2020,16:30,85.42,85.42,85.3,85.3, 3173
01/03/2020,16:31,85.3,85.33,85.16,85.16, 3648
01/03/2020,16:32,85.2,85.26,85.19,85.22, 6852
01/03/2020,16:33,85.21,85.22,85.09,85.1, 5828
01/03/2020,16:34,85.11,85.19,85.11,85.19, 3953
01/03/2020,16:35,85.21,85.26,85.18,85.22, 6160
01/03/2020,16:35,85.24,85.3,85.23,85.28, 1003
01/03/2020,16:37,85.28,85.29,85.16,85.21, 10738
01/03/2020,16:38,85.25,85.27,85.15,85.17, 18334
01/03/2020,16:39,85.17,85.18,85.11,85.14, 3675
01/03/2020,16:40,85.14,85.14,85.03,85.04, 2806
01/03/2020,16:41,85.05,85.12,85.02,85.08, 7643
01/03/2020,16:42,85.06,85.06,84.93,84.93, 13463
01/03/2020,16:43,84.93,85,84.93,84.97, 3508
01/03/2020,16:44,84.97,85.09,84.97,85.07, 5594
01/03/2020,16:45,85.06,85.06,84.91,84.91, 2871
01/03/2020,16:46,84.92,84.95,84.87,84.87, 8085
01/03/2020,16:47,84.85,84.89,84.84,84.85, 4783
01/03/2020,16:47,84.87,84.99,84.87,84.97, 6427
01/03/2020,16:49,84.99,84.99,84.8,84.83, 4391
01/03/2020,16:50,84.84,84.85,84.82,84.83, 2313
01/03/2020,16:51,84.83,84.83,84.71,84.73, 2247
01/03/2020,16:52,84.7,84.7,84.62,84.63, 19431
01/03/2020,16:53,84.63,84.72,84.62,84.71, 12696
01/03/2020,16:54,84.7,84.73,84.64,84.64, 6717
01/03/2020,16:55,84.65,84.66,84.59,84.6, 3486
01/03/2020,16:56,84.6,84.68,84.6,84.68, 4040
01/03/2020,16:57,84.67,84.7,84.62,84.64, 4945
01/03/2020,16:58,84.62,84.74,84.62,84.71, 6483
01/03/2020,16:59,84.73,84.8,84.73,84.76, 9132
01/03/2020,17:00,84.76,84.83,84.76,84.83, 7537
01/03/2020,17:01,84.83,84.93,84.63,84.93, 8450
01/03/2020,17:02,84.92,84.96,84.82,84.83, 3101
01/03/2020,17:03,84.85,84.87,84.75,84.85, 5018
01/03/2020,17:04,84.8,84.8,84.73,84.74, 1100
01/03/2020,17:05,84.71,84.73,84.68,84.73, 1932
01/03/2020,17:06,84.72,84.75,84.72,84.75, 700
01/03/2020,17:07,84.74,84.83,84.73,84.82, 3820
01/03/2020,17:08,84.83,84.86,84.68,84.69, 8176
01/03/2020,17:09,84.7,84.75,84.67,84.72, 3823
01/03/2020,17:10,84.7,84.75,84.68,84.72, 2234
01/03/2020,17:10,84.75,84.75,84.71,84.74, 2144
01/03/2020,17:12,84.75,84.75,84.71,84.72, 2846
01/03/2020,17:13,84.76,84.76,84.72,84.73, 2195
01/03/2020,17:13,84.76,84.79,84.76,84.79, 796
01/03/2020,17:15,84.83,84.86,84.83,84.83, 4202
01/03/2020,17:16,84.84,84.84,84.77,84.79, 1779
01/03/2020,17:17,84.77,84.77,84.67,84.76, 6915
01/03/2020,17:18,84.76,84.85,84.76,84.84, 2613
01/03/2020,17:19,84.83,84.85,84.65,84.65, 3879
01/03/2020,17:20,84.63,84.7,84.6,84.61, 2643
01/03/2020,17:21,84.59,84.61,84.4,84.45, 3299
01/03/2020,17:22,84.44,84.47,84.31,84.37, 7627
01/03/2020,17:23,84.36,84.46,84.35,84.46, 16463
01/03/2020,17:24,84.49,84.5,84.42,84.42, 3396
01/03/2020,17:25,84.42,84.52,84.42,84.49, 8698
01/03/2020,17:26,84.51,84.54,84.46,84.52, 9440
01/03/2020,17:27,84.52,84.52,84.39,84.39, 5817
01/03/2020,17:28,84.37,84.41,84.33,84.35, 3700
01/03/2020,17:29,84.35,84.35,84.3,84.32, 2631
01/03/2020,17:30,84.31,84.31,84.06,84.18, 7175
01/03/2020,17:31,84.16,84.27,84.16,84.24, 4557
01/03/2020,17:32,84.27,84.37,84.24,84.37, 3422
01/03/2020,17:33,84.35,84.35,84.17,84.2, 3864
01/03/2020,17:34,84.2,84.4,84.2,84.37, 4407
01/03/2020,17:35,84.4,84.41,84.33,84.33, 12371
01/03/2020,17:36,84.31,84.36,84.23,84.31, 8306
01/03/2020,17:36,84.34,84.34,84.34,84.34, 400
01/03/2020,17:38,84.34,84.43,84.33,84.36, 22364
01/03/2020,17:39,84.36,84.5,84.36,84.5, 41260
01/03/2020,17:40,84.51,84.51,84.41,84.44, 4000
01/03/2020,17:41,84.44,84.44,84.35,84.35, 3677
01/03/2020,17:42,84.37,84.58,84.37,84.58, 9633
01/03/2020,17:43,84.57,84.57,84.51,84.52, 2422
01/03/2020,17:44,84.52,84.55,84.52,84.53, 1200
01/03/2020,17:45,84.56,84.59,84.5,84.59, 8040
01/03/2020,17:46,84.59,84.64,84.57,84.64, 15355
01/03/2020,17:47,84.63,84.68,84.58,84.65, 11839
01/03/2020,17:48,84.66,84.7,84.62,84.67, 5822
01/03/2020,17:49,84.65,84.65,84.54,84.63, 5622
01/03/2020,17:50,84.64,84.74,84.64,84.72, 3449
01/03/2020,17:51,84.73,84.79,84.73,84.77, 2400
01/03/2020,17:52,84.78,84.78,84.6,84.65, 7400
01/03/2020,17:53,84.62,84.65,84.59,84.61, 8030
01/03/2020,17:54,84.62,84.62,84.59,84.62, 1800
01/03/2020,17:55,84.64,84.68,84.59,84.59, 4818
01/03/2020,17:56,84.59,84.66,84.59,84.66, 1701
01/03/2020,17:57,84.64,84.65,84.57,84.57, 19008
01/03/2020,17:58,84.56,84.61,84.56,84.59, 5300
01/03/2020,17:59,84.56,84.59,84.56,84.59, 1620
01/03/2020,18:00,84.61,84.7,84.6,84.7, 2400
01/03/2020,18:01,84.7,84.73,84.7,84.72, 9980
01/03/2020,18:02,84.72,84.75,84.69,84.75, 6360
01/03/2020,18:03,84.75,84.84,84.73,84.84, 12876
01/03/2020,18:04,84.85,84.85,84.67,84.67, 7290
01/03/2020,18:05,84.69,84.69,84.61,84.61, 1875
01/03/2020,18:06,84.62,84.67,84.61,84.67, 1602
01/03/2020,18:07,84.67,84.72,84.65,84.66, 2203
01/03/2020,18:08,84.68,84.68,84.6,84.62, 19717
01/03/2020,18:09,84.64,84.64,84.51,84.51, 3614
01/03/2020,18:10,84.52,84.52,84.41,84.5, 9501
01/03/2020,18:11,84.47,84.5,84.46,84.5, 2700
01/03/2020,18:12,84.5,84.62,84.5,84.57, 4462
01/03/2020,18:13,84.55,84.55,84.54,84.54, 1200
01/03/2020,18:14,84.55,84.55,84.48,84.51, 1318
01/03/2020,18:15,84.52,84.52,84.4,84.4, 6406
01/03/2020,18:16,84.42,84.45,84.41,84.41, 3132
01/03/2020,18:17,84.4,84.42,84.37,84.37, 700
01/03/2020,18:18,84.37,84.39,84.28,84.28, 1834
01/03/2020,18:19,84.28,84.28,84.21,84.21, 3500
01/03/2020,18:20,84.22,84.22,84.13,84.13, 8991
01/03/2020,18:20,84.16,84.27,84.16,84.24, 3631
01/03/2020,18:22,84.29,84.29,84.26,84.29, 868
01/03/2020,18:23,84.29,84.31,84.28,84.31, 1365
01/03/2020,18:24,84.31,84.31,84.28,84.28, 1456
01/03/2020,18:25,84.27,84.29,84.23,84.29, 2616
01/03/2020,18:26,84.33,84.34,84.31,84.32, 473
01/03/2020,18:27,84.33,84.33,84.31,84.32, 500
01/03/2020,18:28,84.34,84.34,84.23,84.3, 2942
01/03/2020,18:29,84.3,84.3,84.23,84.26, 2560
01/03/2020,18:30,84.26,84.32,84.26,84.32, 1389
01/03/2020,18:31,84.31,84.36,84.31,84.36, 1106
01/03/2020,18:32,84.36,84.37,84.33,84.37, 2076
01/03/2020,18:33,84.37,84.37,84.3,84.3, 4451
01/03/2020,18:34,84.31,84.35,84.31,84.31, 2262
01/03/2020,18:35,84.3,84.34,84.27,84.34, 2072
01/03/2020,18:36,84.33,84.36,84.32,84.32, 2716
01/03/2020,18:36,84.37,84.41,84.34,84.41, 1310
01/03/2020,18:38,84.41,84.41,84.4,84.4, 404
01/03/2020,18:39,84.4,84.43,84.36,84.42, 2500
01/03/2020,18:40,84.42,84.48,84.42,84.48, 820
01/03/2020,18:41,84.48,84.55,84.48,84.55, 1958
01/03/2020,18:42,84.54,84.54,84.45,84.49, 3785
01/03/2020,18:43,84.48,84.48,84.48,84.48, 540
01/03/2020,18:44,84.52,84.52,84.47,84.47, 1391
01/03/2020,18:45,84.48,84.5,84.46,84.47, 1450
01/03/2020,18:46,84.47,84.49,84.44,84.48, 3069
01/03/2020,18:47,84.46,84.46,84.34,84.4, 3148
01/03/2020,18:48,84.41,84.42,84.38,84.42, 1618
01/03/2020,18:49,84.43,84.45,84.43,84.45, 700
01/03/2020,18:50,84.43,84.43,84.36,84.37, 1401
01/03/2020,18:51,84.36,84.37,84.3,84.3, 7570
01/03/2020,18:52,84.31,84.31,84.3,84.3, 725
01/03/2020,18:53,84.3,84.32,84.27,84.27, 1622
01/03/2020,18:54,84.28,84.29,84.25,84.28, 2060
01/03/2020,18:55,84.26,84.28,84.26,84.26, 900
01/03/2020,18:56,84.29,84.31,84.28,84.3, 2450
01/03/2020,18:57,84.29,84.3,84.2,84.29, 4851
01/03/2020,18:58,84.27,84.35,84.24,84.33, 2398
01/03/2020,18:59,84.33,84.35,84.29,84.29, 2000
01/03/2020,19:00,84.28,84.3,84.26,84.3, 4270
01/03/2020,19:01,84.28,84.29,84.24,84.24, 2013
01/03/2020,19:02,84.25,84.28,84.23,84.24, 10978
01/03/2020,19:03,84.25,84.33,84.24,84.33, 3009
01/03/2020,19:04,84.32,84.37,84.32,84.37, 6448
01/03/2020,19:05,84.39,84.43,84.33,84.35, 6891
01/03/2020,19:06,84.34,84.39,84.34,84.39, 1136
01/03/2020,19:07,84.38,84.42,84.36,84.42, 3198
01/03/2020,19:08,84.43,84.43,84.37,84.38, 1839
01/03/2020,19:09,84.38,84.42,84.38,84.41, 1006
01/03/2020,19:10,84.41,84.41,84.37,84.37, 1191
01/03/2020,19:11,84.37,84.45,84.37,84.44, 2708
01/03/2020,19:12,84.44,84.47,84.44,84.47, 2830
01/03/2020,19:13,84.48,84.49,84.45,84.45, 2710
01/03/2020,19:13,84.43,84.43,84.36,84.38, 1875
01/03/2020,19:15,84.42,84.42,84.4,84.4, 1460
01/03/2020,19:16,84.39,84.39,84.36,84.36, 3216
01/03/2020,19:17,84.35,84.42,84.35,84.42, 904
01/03/2020,19:17,84.41,84.41,84.37,84.41, 1300
01/03/2020,19:19,84.46,84.47,84.43,84.43, 1010
01/03/2020,19:20,84.42,84.42,84.34,84.36, 4174
01/03/2020,19:20,84.4,84.4,84.39,84.39, 300
01/03/2020,19:21,84.41,84.41,84.41,84.41, 305
01/03/2020,19:23,84.42,84.45,84.42,84.42, 1736
01/03/2020,19:24,84.4,84.45,84.4,84.45, 737
01/03/2020,19:24,84.46,84.46,84.44,84.45, 1195
01/03/2020,19:26,84.47,84.5,84.47,84.5, 300
01/03/2020,19:27,84.5,84.5,84.41,84.41, 1400
01/03/2020,19:28,84.37,84.42,84.37,84.41, 2100
01/03/2020,19:29,84.39,84.43,84.36,84.4, 5554
01/03/2020,19:30,84.42,84.43,84.34,84.36, 43509
01/03/2020,19:31,84.35,84.37,84.34,84.35, 2960
01/03/2020,19:32,84.34,84.35,84.3,84.32, 3445
01/03/2020,19:33,84.32,84.4,84.32,84.4, 2922
01/03/2020,19:34,84.39,84.4,84.36,84.36, 3265
01/03/2020,19:35,84.36,84.45,84.35,84.45, 5250
01/03/2020,19:36,84.46,84.49,84.41,84.49, 2688
01/03/2020,19:37,84.49,84.55,84.47,84.53, 1322
01/03/2020,19:38,84.53,84.53,84.4,84.42, 3591
01/03/2020,19:39,84.41,84.48,84.36,84.44, 6516
01/03/2020,19:40,84.54,84.61,84.48,84.6, 4484
01/03/2020,19:41,84.6,84.78,84.6,84.78, 7737
01/03/2020,19:42,84.74,84.74,84.64,84.69, 7451
01/03/2020,19:43,84.69,84.72,84.66,84.66, 10531
01/03/2020,19:44,84.67,84.69,84.65,84.65, 1901
01/03/2020,19:45,84.66,84.66,84.65,84.66, 600
01/03/2020,19:46,84.69,84.75,84.67,84.75, 3150
01/03/2020,19:47,84.76,84.76,84.72,84.72, 1905
01/03/2020,19:48,84.71,84.73,84.68,84.68, 2000
01/03/2020,19:49,84.68,84.7,84.67,84.67, 4857
01/03/2020,19:50,84.7,84.73,84.68,84.69, 7689
01/03/2020,19:51,84.7,84.72,84.68,84.72, 5570
01/03/2020,19:52,84.72,84.79,84.71,84.75, 3795
01/03/2020,19:53,84.74,84.78,84.71,84.73, 9391
01/03/2020,19:54,84.73,84.75,84.71,84.71, 1505
01/03/2020,19:55,84.72,84.72,84.69,84.71, 4213
01/03/2020,19:56,84.72,84.74,84.63,84.69, 13624
01/03/2020,19:57,84.69,84.73,84.69,84.73, 900
01/03/2020,19:58,84.74,84.78,84.74,84.76, 4077
01/03/2020,19:59,84.76,84.79,84.74,84.74, 7167
01/03/2020,20:00,84.76,84.79,84.76,84.79, 3706
01/03/2020,20:01,84.76,84.79,84.74,84.74, 5217
01/03/2020,20:02,84.74,84.78,84.73,84.78, 4947
01/03/2020,20:03,84.76,84.81,84.75,84.75, 2933
01/03/2020,20:04,84.74,84.78,84.72,84.78, 3314
01/03/2020,20:05,84.74,84.81,84.74,84.81, 5005
01/03/2020,20:06,84.8,84.86,84.8,84.83, 3344
01/03/2020,20:07,84.84,84.86,84.84,84.86, 2342
01/03/2020,20:08,84.89,84.91,84.87,84.91, 1299
01/03/2020,20:09,84.92,84.92,84.8,84.81, 6653
01/03/2020,20:10,84.8,84.82,84.73,84.76, 12707
01/03/2020,20:11,84.76,84.77,84.71,84.72, 12924
01/03/2020,20:12,84.73,84.77,84.72,84.73, 2161
01/03/2020,20:13,84.72,84.77,84.69,84.75, 2794
01/03/2020,20:14,84.77,84.8,84.76,84.77, 2910
01/03/2020,20:15,84.75,84.79,84.73,84.79, 2300
01/03/2020,20:16,84.77,84.84,84.77,84.8, 9659
01/03/2020,20:17,84.77,84.77,84.66,84.71, 3234
01/03/2020,20:18,84.71,84.76,84.71,84.76, 710
01/03/2020,20:19,84.79,84.79,84.77,84.79, 1941
01/03/2020,20:20,84.81,84.86,84.76,84.77, 3457
01/03/2020,20:21,84.76,84.78,84.71,84.77, 3000
01/03/2020,20:22,84.76,84.79,84.75,84.79, 600
01/03/2020,20:23,84.8,84.82,84.78,84.78, 718
01/03/2020,20:24,84.78,84.78,84.75,84.77, 1600
01/03/2020,20:25,84.77,84.77,84.74,84.74, 3610
01/03/2020,20:26,84.72,84.76,84.67,84.76, 5700
01/03/2020,20:27,84.78,84.78,84.75,84.75, 774
01/03/2020,20:28,84.78,84.84,84.78,84.83, 6133
01/03/2020,20:29,84.85,84.9,84.73,84.73, 3242
01/03/2020,20:30,84.76,84.76,84.68,84.69, 3415
01/03/2020,20:31,84.69,84.73,84.69,84.7, 2206
01/03/2020,20:32,84.66,84.68,84.66,84.66, 775
01/03/2020,20:33,84.68,84.69,84.62,84.64, 4000
01/03/2020,20:34,84.63,84.65,84.61,84.64, 2667
01/03/2020,20:35,84.64,84.65,84.62,84.65, 1316
01/03/2020,20:36,84.64,84.65,84.62,84.65, 1515
01/03/2020,20:37,84.65,84.7,84.65,84.7, 911
01/03/2020,20:38,84.68,84.68,84.65,84.67, 1799
01/03/2020,20:39,84.67,84.67,84.63,84.63, 1000
01/03/2020,20:40,84.62,84.64,84.6,84.64, 4106
01/03/2020,20:41,84.65,84.69,84.63,84.63, 7532
01/03/2020,20:42,84.66,84.7,84.65,84.7, 1853
01/03/2020,20:43,84.7,84.71,84.68,84.69, 9804
01/03/2020,20:44,84.69,84.77,84.69,84.71, 4824
01/03/2020,20:45,84.69,84.8,84.69,84.8, 2847
01/03/2020,20:46,84.8,84.81,84.73,84.73, 2917
01/03/2020,20:47,84.74,84.76,84.73,84.76, 3678
01/03/2020,20:48,84.78,84.79,84.77,84.79, 2406
01/03/2020,20:49,84.79,84.81,84.74,84.77, 3200
01/03/2020,20:49,84.77,84.77,84.76,84.76, 500
01/03/2020,20:51,84.76,84.81,84.75,84.75, 2904
01/03/2020,20:52,84.78,84.83,84.78,84.81, 1866
01/03/2020,20:53,84.79,84.82,84.79,84.8, 1080
01/03/2020,20:54,84.83,84.84,84.8,84.8, 2103
01/03/2020,20:55,84.79,84.86,84.77,84.86, 3100
01/03/2020,20:56,84.84,84.84,84.8,84.8, 1400
01/03/2020,20:57,84.78,84.8,84.77,84.8, 1400
01/03/2020,20:57,84.8,84.81,84.78,84.81, 500
01/03/2020,20:59,84.8,84.85,84.8,84.83, 2200
01/03/2020,21:00,84.84,84.84,84.78,84.78, 2400
01/03/2020,21:01,84.76,84.79,84.73,84.79, 1648
01/03/2020,21:02,84.78,84.81,84.75,84.75, 2401
01/03/2020,21:03,84.75,84.82,84.75,84.82, 6082
01/03/2020,21:04,84.8,84.81,84.73,84.76, 3204
01/03/2020,21:05,84.76,84.79,84.75,84.78, 1421
01/03/2020,21:06,84.8,84.81,84.79,84.8, 1405
01/03/2020,21:07,84.78,84.79,84.75,84.75, 3986
01/03/2020,21:08,84.77,84.77,84.72,84.75, 3917
01/03/2020,21:09,84.75,84.78,84.75,84.77, 2318
01/03/2020,21:10,84.76,84.79,84.72,84.79, 2779
01/03/2020,21:10,84.79,84.8,84.77,84.77, 900
01/03/2020,21:12,84.76,84.81,84.76,84.8, 1940
01/03/2020,21:13,84.8,84.81,84.79,84.81, 4193
01/03/2020,21:14,84.8,84.82,84.8,84.82, 5632
01/03/2020,21:15,84.82,84.82,84.79,84.82, 33111
01/03/2020,21:16,84.82,84.85,84.82,84.83, 3914
01/03/2020,21:17,84.84,84.86,84.82,84.84, 4536
01/03/2020,21:18,84.83,84.84,84.82,84.83, 3400
01/03/2020,21:19,84.82,84.83,84.78,84.78, 5548
01/03/2020,21:20,84.79,84.79,84.73,84.75, 5661
01/03/2020,21:21,84.76,84.78,84.76,84.77, 1901
01/03/2020,21:22,84.78,84.85,84.75,84.76, 6139
01/03/2020,21:23,84.76,84.81,84.74,84.81, 4100
01/03/2020,21:24,84.81,84.83,84.79,84.8, 3100
01/03/2020,21:25,84.79,84.81,84.76,84.76, 3410
01/03/2020,21:26,84.77,84.85,84.77,84.82, 3235
01/03/2020,21:27,84.82,84.84,84.81,84.81, 2501
01/03/2020,21:28,84.83,84.89,84.82,84.83, 5442
01/03/2020,21:29,84.84,84.84,84.81,84.81, 3000
01/03/2020,21:30,84.83,84.87,84.79,84.79, 4404
01/03/2020,21:31,84.79,84.82,84.73,84.74, 9767
01/03/2020,21:32,84.74,84.74,84.66,84.68, 8160
01/03/2020,21:33,84.68,84.7,84.64,84.7, 3590
01/03/2020,21:34,84.71,84.73,84.69,84.72, 4798
01/03/2020,21:35,84.72,84.8,84.71,84.78, 6162
01/03/2020,21:36,84.78,84.78,84.71,84.75, 7057
01/03/2020,21:37,84.74,84.75,84.7,84.73, 3260
01/03/2020,21:38,84.72,84.77,84.72,84.75, 5952
01/03/2020,21:39,84.75,84.78,84.74,84.76, 5600
01/03/2020,21:40,84.76,84.77,84.69,84.71, 5997
01/03/2020,21:41,84.71,84.74,84.69,84.72, 5957
01/03/2020,21:42,84.72,84.72,84.69,84.72, 5084
01/03/2020,21:43,84.73,84.79,84.72,84.79, 348035
01/03/2020,21:44,84.78,84.85,84.78,84.85, 7377
01/03/2020,21:45,84.85,84.92,84.85,84.9, 8953
01/03/2020,21:46,84.91,84.97,84.91,84.94, 9594
01/03/2020,21:47,84.95,85,84.95,84.98, 10119
01/03/2020,21:48,85,85.05,84.99,85.04, 7766
01/03/2020,21:49,85.02,85.07,85.01,85.03, 11468
01/03/2020,21:50,85.01,85.02,84.91,84.96, 10021
01/03/2020,21:51,84.98,85.02,84.95,85, 16080
01/03/2020,21:52,85,85.1,85,85.07, 16520
01/03/2020,21:53,85.08,85.13,85.07,85.07, 13955
01/03/2020,21:54,85.06,85.11,85.06,85.09, 8176
01/03/2020,21:55,85.11,85.13,85.08,85.12, 18247
01/03/2020,21:56,85.12,85.15,85.1,85.11, 13384
01/03/2020,21:57,85.11,85.2,85.06,85.2, 15644
01/03/2020,21:58,85.2,85.21,85.1,85.12, 22178
01/03/2020,21:59,85.12,85.12,85.03,85.11, 20621
01/03/2020,22:00,85.1,85.14,85.07,85.13, 31202
01/03/2020,22:01,85.14,85.16,85.02,85.02, 37525
01/03/2020,22:01,85.02,85.04,84.99,84.99, 245466
01/06/2020,15:31,85.9,85.9,85.78,85.79, 42202
01/06/2020,15:32,85.85,86.14,85.85,86.1, 4200
01/06/2020,15:33,86.06,86.17,86.01,86.07, 3775
01/06/2020,15:34,86.07,86.31,86.07,86.15, 11348
01/06/2020,15:35,86.19,86.29,86.06,86.25, 12572
01/06/2020,15:36,86.21,86.23,86.13,86.21, 19393
01/06/2020,15:37,86.17,86.33,86.14,86.33, 18301
01/06/2020,15:38,86.37,86.48,86.31,86.45, 5310
01/06/2020,15:39,86.5,86.5,86.37,86.45, 4665
01/06/2020,15:40,86.38,86.44,86.31,86.37, 10094
01/06/2020,15:41,86.37,86.39,86.28,86.32, 148560
01/06/2020,15:42,86.33,86.47,86.27,86.47, 11493
01/06/2020,15:43,86.42,86.62,86.42,86.53, 12229
01/06/2020,15:44,86.49,86.61,86.44,86.57, 5549
01/06/2020,15:45,86.62,86.72,86.55,86.65, 7127
01/06/2020,15:46,86.65,86.89,86.65,86.85, 4049
01/06/2020,15:47,86.85,86.95,86.82,86.87, 13105
01/06/2020,15:48,86.89,87.1,86.86,87.05, 24912
01/06/2020,15:49,87.06,87.18,87.02,87.1, 17060
01/06/2020,15:50,87.14,87.19,87.07,87.1, 25965
01/06/2020,15:51,87.14,87.18,87.1,87.13, 10154
01/06/2020,15:52,87.13,87.3,87.13,87.25, 8216
01/06/2020,15:53,87.25,87.29,87.15,87.19, 14289
01/06/2020,15:54,87.2,87.25,87.06,87.09, 23347
01/06/2020,15:55,87.09,87.12,87.05,87.11, 14628
01/06/2020,15:56,87.11,87.12,86.98,86.99, 27138
01/06/2020,15:57,86.97,87.03,86.94,87, 11348
01/06/2020,15:58,87,87.02,86.93,86.97, 16173
01/06/2020,15:59,86.97,87.1,86.95,87.09, 14264
01/06/2020,16:00,87.09,87.14,87.08,87.12, 4917
01/06/2020,16:01,87.11,87.22,87.1,87.2, 17268
01/06/2020,16:02,87.18,87.21,87.16,87.19, 9553
01/06/2020,16:03,87.18,87.27,87.14,87.22, 11545
01/06/2020,16:04,87.24,87.28,87.2,87.27, 11604
01/06/2020,16:05,87.3,87.4,87.24,87.38, 8010
01/06/2020,16:06,87.39,87.48,87.36,87.46, 25111
01/06/2020,16:07,87.45,87.57,87.45,87.54, 21511
01/06/2020,16:08,87.53,87.63,87.5,87.6, 37607
01/06/2020,16:09,87.61,87.66,87.54,87.54, 19817
01/06/2020,16:10,87.53,87.68,87.52,87.66, 12295
01/06/2020,16:11,87.67,87.74,87.66,87.73, 8854
01/06/2020,16:12,87.74,87.81,87.68,87.8, 17940
01/06/2020,16:13,87.82,87.93,87.81,87.92, 7441
01/06/2020,16:14,87.95,87.96,87.74,87.78, 43816
01/06/2020,16:15,87.82,87.9,87.67,87.73, 10934
01/06/2020,16:16,87.74,87.94,87.73,87.92, 9022
01/06/2020,16:17,87.96,88.14,87.94,88.14, 11995
01/06/2020,16:18,88.11,88.14,87.98,88.05, 13220
01/06/2020,16:19,88.04,88.14,87.98,88.08, 34622
01/06/2020,16:20,88.1,88.23,88.04,88.23, 22484
01/06/2020,16:21,88.22,88.23,88.11,88.14, 35312
01/06/2020,16:22,88.13,88.17,88.06,88.08, 13760
01/06/2020,16:23,88.09,88.18,88.08,88.15, 12050
01/06/2020,16:24,88.15,88.15,88.08,88.1, 36174
01/06/2020,16:25,88.11,88.19,88.09,88.17, 23393
01/06/2020,16:26,88.15,88.18,88.12,88.18, 8808
01/06/2020,16:27,88.16,88.33,88.16,88.33, 6697
01/06/2020,16:28,88.3,88.43,88.28,88.4, 19907
01/06/2020,16:29,88.37,88.38,88.22,88.28, 11645
01/06/2020,16:30,88.26,88.41,88.24,88.41, 11160
01/06/2020,16:31,88.41,88.43,88.34,88.43, 30132
01/06/2020,16:32,88.43,88.46,88.35,88.44, 33565
01/06/2020,16:33,88.45,88.46,88.14,88.14, 31722
01/06/2020,16:34,88.17,88.42,88.1,88.41, 15158
01/06/2020,16:35,88.36,88.42,88.3,88.34, 14858
01/06/2020,16:36,88.39,88.39,88.25,88.25, 23026
01/06/2020,16:37,88.26,88.29,88.2,88.25, 17206
01/06/2020,16:38,88.23,88.26,88.1,88.15, 48319
01/06/2020,16:39,88.15,88.28,88.14,88.24, 35580
01/06/2020,16:40,88.23,88.25,88.11,88.15, 33900
01/06/2020,16:41,88.16,88.25,88.12,88.23, 31701
01/06/2020,16:42,88.24,88.25,88.17,88.18, 7207
01/06/2020,16:43,88.19,88.2,88.04,88.09, 22594
01/06/2020,16:44,88.08,88.12,87.97,88.02, 11012
01/06/2020,16:45,88.04,88.06,87.99,88.04, 14814
01/06/2020,16:46,88.04,88.13,87.91,87.93, 7573
01/06/2020,16:47,87.93,88.04,87.93,88.02, 11213
01/06/2020,16:48,88.02,88.04,87.94,88.01, 21132
01/06/2020,16:49,87.98,88.02,87.95,88.01, 15015
01/06/2020,16:50,88.01,88.02,87.82,87.82, 12864
01/06/2020,16:51,87.81,87.9,87.76,87.76, 8433
01/06/2020,16:52,87.74,87.87,87.7,87.87, 12330
01/06/2020,16:53,87.87,87.87,87.76,87.86, 12631
01/06/2020,16:54,87.86,87.9,87.79,87.82, 6236
01/06/2020,16:55,87.82,87.86,87.8,87.83, 4293
01/06/2020,16:56,87.81,87.83,87.74,87.76, 5675
01/06/2020,16:57,87.77,87.89,87.75,87.78, 61771
01/06/2020,16:58,87.78,87.85,87.78,87.81, 10464
01/06/2020,16:59,87.83,87.83,87.6,87.67, 34024
01/06/2020,17:00,87.67,87.77,87.59,87.66, 27225
01/06/2020,17:01,87.66,87.68,87.6,87.6, 10321
01/06/2020,17:02,87.6,87.61,87.53,87.56, 20389
01/06/2020,17:03,87.56,87.56,87.51,87.53, 32777
01/06/2020,17:04,87.53,87.71,87.53,87.68, 9332
01/06/2020,17:05,87.73,87.75,87.64,87.66, 33205
01/06/2020,17:06,87.66,87.67,87.54,87.57, 22080
01/06/2020,17:07,87.58,87.67,87.55,87.59, 15959
01/06/2020,17:08,87.6,87.62,87.52,87.53, 17686
01/06/2020,17:09,87.53,87.58,87.53,87.56, 10767
01/06/2020,17:10,87.55,87.65,87.54,87.57, 13405
01/06/2020,17:11,87.58,87.65,87.55,87.63, 18687
01/06/2020,17:12,87.63,87.64,87.53,87.55, 32011
01/06/2020,17:13,87.54,87.6,87.54,87.59, 12494
01/06/2020,17:14,87.59,87.75,87.57,87.75, 12710
01/06/2020,17:15,87.72,87.82,87.71,87.76, 11867
01/06/2020,17:16,87.78,87.81,87.74,87.8, 4438
01/06/2020,17:17,87.77,87.8,87.75,87.77, 11977
01/06/2020,17:18,87.77,87.78,87.73,87.78, 14395
01/06/2020,17:19,87.77,87.81,87.74,87.79, 21974
01/06/2020,17:20,87.79,87.8,87.75,87.76, 7728
01/06/2020,17:21,87.75,87.87,87.73,87.86, 10155
01/06/2020,17:22,87.87,87.97,87.87,87.97, 3845
01/06/2020,17:23,87.97,87.97,87.86,87.89, 9123
01/06/2020,17:24,87.89,87.92,87.86,87.86, 12944
01/06/2020,17:25,87.87,87.9,87.82,87.9, 3110
01/06/2020,17:26,87.88,87.89,87.65,87.73, 10902
01/06/2020,17:27,87.74,87.88,87.74,87.84, 16719
01/06/2020,17:28,87.85,87.86,87.81,87.84, 6895
01/06/2020,17:29,87.86,87.94,87.81,87.88, 8789
01/06/2020,17:30,87.89,87.92,87.87,87.91, 9200
01/06/2020,17:31,87.89,87.9,87.85,87.87, 4800
01/06/2020,17:32,87.89,87.89,87.74,87.77, 5902
01/06/2020,17:33,87.76,87.83,87.76,87.81, 3717
01/06/2020,17:34,87.8,87.81,87.71,87.71, 7450
01/06/2020,17:35,87.71,87.75,87.66,87.67, 4215
01/06/2020,17:36,87.67,87.74,87.64,87.73, 5554
01/06/2020,17:37,87.72,87.8,87.67,87.8, 6128
01/06/2020,17:38,87.82,87.85,87.81,87.84, 7023
01/06/2020,17:39,87.86,87.89,87.82,87.82, 2922
01/06/2020,17:40,87.81,87.84,87.8,87.84, 8900
01/06/2020,17:41,87.85,87.88,87.82,87.85, 36388
01/06/2020,17:42,87.85,87.86,87.82,87.84, 7243
01/06/2020,17:43,87.86,87.86,87.82,87.85, 3139
01/06/2020,17:44,87.85,87.86,87.82,87.82, 3398
01/06/2020,17:45,87.83,87.85,87.82,87.84, 3894
01/06/2020,17:46,87.83,87.85,87.82,87.82, 6627
01/06/2020,17:47,87.82,87.85,87.8,87.83, 12480
01/06/2020,17:48,87.85,87.96,87.85,87.95, 11299
01/06/2020,17:49,87.96,87.99,87.94,87.96, 2172
01/06/2020,17:50,87.97,88,87.95,87.97, 2920
01/06/2020,17:51,87.97,87.97,87.88,87.96, 3000
01/06/2020,17:52,87.96,87.96,87.83,87.89, 4932
01/06/2020,17:53,87.87,87.89,87.82,87.82, 18581
01/06/2020,17:54,87.82,87.87,87.8,87.83, 4557
01/06/2020,17:55,87.83,87.83,87.79,87.79, 1165
01/06/2020,17:56,87.78,87.84,87.73,87.83, 12448
01/06/2020,17:57,87.84,87.88,87.83,87.86, 2600
01/06/2020,17:58,87.85,87.85,87.81,87.82, 1405
01/06/2020,17:59,87.84,87.88,87.83,87.88, 4165
01/06/2020,18:00,87.88,87.9,87.85,87.85, 1164
01/06/2020,18:01,87.83,87.84,87.74,87.74, 13011
01/06/2020,18:02,87.75,87.79,87.7,87.71, 11728
01/06/2020,18:03,87.71,87.71,87.62,87.62, 40871
01/06/2020,18:04,87.62,87.62,87.55,87.57, 5132
01/06/2020,18:05,87.59,87.61,87.55,87.6, 4208
01/06/2020,18:06,87.59,87.63,87.55,87.62, 7025
01/06/2020,18:07,87.63,87.64,87.59,87.63, 2700
01/06/2020,18:08,87.64,87.7,87.61,87.66, 7832
01/06/2020,18:09,87.67,87.7,87.64,87.65, 2298
01/06/2020,18:10,87.65,87.74,87.65,87.71, 5095
01/06/2020,18:11,87.68,87.69,87.62,87.67, 3196
01/06/2020,18:12,87.67,87.73,87.63,87.73, 23400
01/06/2020,18:13,87.74,87.78,87.65,87.65, 17776
01/06/2020,18:14,87.65,87.67,87.61,87.66, 7215
01/06/2020,18:15,87.66,87.66,87.64,87.65, 6517
01/06/2020,18:16,87.65,87.67,87.63,87.63, 4000
01/06/2020,18:17,87.62,87.67,87.61,87.67, 15706
01/06/2020,18:18,87.66,87.67,87.62,87.64, 8405
01/06/2020,18:19,87.64,87.68,87.64,87.65, 3930
01/06/2020,18:20,87.65,87.71,87.65,87.7, 1800
01/06/2020,18:21,87.69,87.71,87.67,87.67, 2891
01/06/2020,18:22,87.65,87.66,87.6,87.62, 10024
01/06/2020,18:23,87.62,87.64,87.61,87.63, 2123
01/06/2020,18:24,87.63,87.65,87.58,87.59, 3238
01/06/2020,18:25,87.58,87.64,87.58,87.59, 6908
01/06/2020,18:26,87.56,87.63,87.56,87.61, 3800
01/06/2020,18:27,87.62,87.62,87.53,87.57, 10112
01/06/2020,18:28,87.58,87.63,87.55,87.55, 6905
01/06/2020,18:29,87.55,87.6,87.54,87.57, 8702
01/06/2020,18:30,87.56,87.6,87.56,87.56, 7424
01/06/2020,18:31,87.57,87.57,87.54,87.56, 4200
01/06/2020,18:32,87.55,87.56,87.54,87.55, 11918
01/06/2020,18:33,87.55,87.56,87.54,87.55, 5036
01/06/2020,18:34,87.55,87.6,87.53,87.55, 7800
01/06/2020,18:35,87.55,87.57,87.54,87.55, 4864
01/06/2020,18:36,87.56,87.61,87.56,87.61, 9105
01/06/2020,18:37,87.61,87.68,87.6,87.66, 7000
01/06/2020,18:38,87.66,87.7,87.65,87.69, 7319
01/06/2020,18:39,87.69,87.7,87.66,87.66, 6988
01/06/2020,18:40,87.66,87.71,87.63,87.69, 7233
01/06/2020,18:41,87.7,87.72,87.67,87.72, 5077
01/06/2020,18:42,87.72,87.73,87.61,87.68, 11232
01/06/2020,18:43,87.7,87.74,87.7,87.71, 3000
01/06/2020,18:44,87.71,87.73,87.71,87.73, 2792
01/06/2020,18:45,87.71,87.71,87.67,87.7, 8444
01/06/2020,18:46,87.7,87.74,87.69,87.69, 4100
01/06/2020,18:47,87.68,87.7,87.65,87.66, 5657
01/06/2020,18:48,87.67,87.7,87.66,87.67, 1700
01/06/2020,18:49,87.66,87.68,87.62,87.63, 3324
01/06/2020,18:50,87.62,87.64,87.61,87.64, 4129
01/06/2020,18:51,87.64,87.68,87.63,87.63, 4735
01/06/2020,18:52,87.63,87.67,87.62,87.66, 2112
01/06/2020,18:53,87.65,87.65,87.63,87.63, 2235
01/06/2020,18:54,87.64,87.64,87.6,87.61, 4042
01/06/2020,18:55,87.58,87.63,87.56,87.63, 75343
01/06/2020,18:56,87.63,87.65,87.58,87.58, 4800
01/06/2020,18:57,87.57,87.58,87.53,87.54, 5673
01/06/2020,18:58,87.53,87.53,87.49,87.51, 16119
01/06/2020,18:59,87.51,87.56,87.51,87.54, 10601
01/06/2020,19:00,87.56,87.6,87.56,87.57, 4098
01/06/2020,19:01,87.57,87.58,87.56,87.58, 1750
01/06/2020,19:02,87.57,87.61,87.57,87.61, 3757
01/06/2020,19:03,87.61,87.61,87.55,87.59, 7921
01/06/2020,19:04,87.59,87.61,87.54,87.54, 3611
01/06/2020,19:05,87.56,87.58,87.55,87.57, 2853
01/06/2020,19:06,87.57,87.65,87.57,87.61, 6562
01/06/2020,19:07,87.61,87.66,87.61,87.66, 6641
01/06/2020,19:08,87.66,87.67,87.64,87.65, 2796
01/06/2020,19:09,87.67,87.67,87.59,87.61, 4892
01/06/2020,19:10,87.61,87.66,87.61,87.66, 1589
01/06/2020,19:11,87.66,87.69,87.66,87.67, 2131
01/06/2020,19:12,87.67,87.68,87.6,87.6, 7921
01/06/2020,19:13,87.59,87.66,87.59,87.66, 1830
01/06/2020,19:14,87.64,87.64,87.6,87.63, 14134
01/06/2020,19:15,87.65,87.66,87.64,87.65, 2616
01/06/2020,19:16,87.67,87.69,87.63,87.64, 3650
01/06/2020,19:17,87.62,87.68,87.62,87.65, 3591
01/06/2020,19:18,87.64,87.68,87.61,87.64, 2142
01/06/2020,19:19,87.64,87.67,87.63,87.66, 2632
01/06/2020,19:20,87.67,87.67,87.63,87.63, 3546
01/06/2020,19:21,87.61,87.65,87.61,87.62, 4219
01/06/2020,19:22,87.62,87.62,87.58,87.58, 4163
01/06/2020,19:23,87.6,87.62,87.56,87.58, 9791
01/06/2020,19:24,87.59,87.59,87.55,87.58, 8219
01/06/2020,19:25,87.59,87.64,87.59,87.61, 4496
01/06/2020,19:26,87.63,87.67,87.62,87.64, 4907
01/06/2020,19:27,87.64,87.66,87.64,87.66, 1081
01/06/2020,19:28,87.67,87.67,87.6,87.61, 9770
01/06/2020,19:29,87.61,87.63,87.61,87.61, 2400
01/06/2020,19:30,87.6,87.64,87.6,87.64, 600
01/06/2020,19:31,87.64,87.71,87.64,87.68, 5815
01/06/2020,19:32,87.69,87.72,87.68,87.69, 11731
01/06/2020,19:33,87.69,87.7,87.66,87.66, 7233
01/06/2020,19:34,87.67,87.75,87.67,87.75, 21300
01/06/2020,19:35,87.75,87.77,87.74,87.75, 9266
01/06/2020,19:36,87.75,87.76,87.74,87.75, 8094
01/06/2020,19:37,87.75,87.8,87.75,87.76, 4065
01/06/2020,19:38,87.75,87.75,87.74,87.74, 1117
01/06/2020,19:39,87.73,87.73,87.62,87.62, 7167
01/06/2020,19:40,87.61,87.64,87.6,87.6, 3001
01/06/2020,19:41,87.6,87.61,87.6,87.61, 2006
01/06/2020,19:42,87.61,87.69,87.61,87.68, 11333
01/06/2020,19:43,87.67,87.71,87.65,87.71, 3766
01/06/2020,19:44,87.71,87.74,87.71,87.73, 3177
01/06/2020,19:45,87.73,87.79,87.73,87.76, 4290
01/06/2020,19:46,87.76,87.76,87.71,87.76, 2599
01/06/2020,19:47,87.76,87.82,87.76,87.78, 4945
01/06/2020,19:48,87.78,87.8,87.77,87.8, 3185
01/06/2020,19:49,87.8,87.86,87.79,87.86, 4500
01/06/2020,19:50,87.86,87.9,87.85,87.88, 5214
01/06/2020,19:51,87.9,87.97,87.89,87.95, 7887
01/06/2020,19:52,87.97,87.97,87.89,87.92, 3257
01/06/2020,19:53,87.91,87.92,87.9,87.91, 1754
01/06/2020,19:54,87.92,87.95,87.91,87.92, 8933
01/06/2020,19:55,87.93,87.93,87.91,87.92, 4643
01/06/2020,19:56,87.93,87.99,87.93,87.99, 7352
01/06/2020,19:57,87.99,88.01,87.95,88.01, 11451
01/06/2020,19:58,88.01,88.02,87.98,87.98, 6695
01/06/2020,19:59,88.01,88.08,88,88.07, 9522
01/06/2020,20:00,88.08,88.1,88.08,88.08, 3156
01/06/2020,20:01,88.07,88.07,88.02,88.02, 7928
01/06/2020,20:02,88.02,88.09,88.02,88.08, 2791
01/06/2020,20:03,88.09,88.14,88.09,88.14, 4574
01/06/2020,20:04,88.13,88.2,88.13,88.19, 7777
01/06/2020,20:05,88.2,88.21,88.16,88.17, 6523
01/06/2020,20:06,88.16,88.16,88.08,88.1, 7871
01/06/2020,20:07,88.09,88.16,88.09,88.14, 5252
01/06/2020,20:08,88.16,88.18,88.11,88.11, 7895
01/06/2020,20:09,88.11,88.18,88.1,88.18, 4371
01/06/2020,20:10,88.17,88.22,88.17,88.22, 6344
01/06/2020,20:11,88.22,88.23,88.13,88.19, 10573
01/06/2020,20:12,88.21,88.22,88.15,88.21, 6753
01/06/2020,20:13,88.22,88.29,88.22,88.27, 9531
01/06/2020,20:14,88.26,88.33,88.26,88.32, 3339
01/06/2020,20:15,88.33,88.34,88.3,88.31, 5456
01/06/2020,20:16,88.32,88.38,88.32,88.34, 6409
01/06/2020,20:17,88.35,88.44,88.34,88.44, 3320
01/06/2020,20:18,88.45,88.56,88.45,88.56, 14726
01/06/2020,20:19,88.57,88.59,88.51,88.59, 10619
01/06/2020,20:20,88.57,88.58,88.55,88.57, 5957
01/06/2020,20:21,88.57,88.62,88.57,88.61, 6870
01/06/2020,20:22,88.61,88.65,88.59,88.64, 6093
01/06/2020,20:23,88.63,88.64,88.5,88.51, 15724
01/06/2020,20:24,88.54,88.54,88.42,88.45, 13327
01/06/2020,20:25,88.44,88.55,88.44,88.53, 11433
01/06/2020,20:26,88.54,88.54,88.47,88.49, 12561
01/06/2020,20:27,88.51,88.52,88.49,88.52, 2150
01/06/2020,20:28,88.5,88.57,88.5,88.55, 3004
01/06/2020,20:29,88.53,88.54,88.51,88.53, 6572
01/06/2020,20:30,88.53,88.56,88.51,88.54, 7949
01/06/2020,20:31,88.57,88.68,88.57,88.64, 18226
01/06/2020,20:32,88.67,88.72,88.66,88.67, 11271
01/06/2020,20:33,88.67,88.67,88.61,88.66, 18505
01/06/2020,20:34,88.64,88.7,88.64,88.7, 3616
01/06/2020,20:35,88.7,88.73,88.66,88.68, 61235
01/06/2020,20:36,88.67,88.68,88.59,88.59, 10250
01/06/2020,20:37,88.59,88.66,88.59,88.63, 6127
01/06/2020,20:38,88.62,88.69,88.61,88.69, 4725
01/06/2020,20:39,88.69,88.74,88.69,88.74, 4275
01/06/2020,20:40,88.74,88.77,88.7,88.77, 8288
01/06/2020,20:41,88.78,88.81,88.77,88.8, 7669
01/06/2020,20:42,88.81,88.84,88.79,88.8, 9468
01/06/2020,20:43,88.82,88.82,88.81,88.82, 3279
01/06/2020,20:44,88.82,88.9,88.82,88.85, 16875
01/06/2020,20:45,88.86,88.91,88.85,88.89, 7944
01/06/2020,20:46,88.9,88.92,88.88,88.9, 8247
01/06/2020,20:47,88.91,88.94,88.91,88.93, 3900
01/06/2020,20:48,88.93,88.99,88.92,88.96, 14422
01/06/2020,20:49,88.98,89.07,88.98,89.06, 8777
01/06/2020,20:50,89.04,89.05,88.99,89.03, 12387
01/06/2020,20:51,89.02,89.04,88.99,89.03, 6240
01/06/2020,20:52,89.03,89.07,89.01,89.05, 11376
01/06/2020,20:53,89.03,89.04,88.98,89.02, 18325
01/06/2020,20:54,89.02,89.08,89.01,89.08, 6944
01/06/2020,20:55,89.09,89.13,89.07,89.11, 7423
01/06/2020,20:56,89.11,89.11,88.99,89.05, 7359
01/06/2020,20:57,89.06,89.06,89.02,89.04, 6159
01/06/2020,20:58,89.04,89.1,89.01,89.1, 20053
01/06/2020,20:59,89.11,89.12,89.09,89.09, 9204
01/06/2020,21:00,89.08,89.13,89.05,89.13, 19933
01/06/2020,21:01,89.13,89.22,89.12,89.14, 45137
01/06/2020,21:02,89.13,89.19,89.05,89.12, 72269
01/06/2020,21:03,89.14,89.22,89.11,89.15, 58150
01/06/2020,21:04,89.15,89.15,89.11,89.13, 10213
01/06/2020,21:05,89.13,89.14,89.05,89.09, 27597
01/06/2020,21:06,89.08,89.15,89.08,89.1, 27597
01/06/2020,21:07,89.09,89.21,89.09,89.2, 39585
01/06/2020,21:08,89.21,89.29,89.02,89.02, 35374
01/06/2020,21:09,89.04,89.04,88.95,89.01, 15767
01/06/2020,21:10,89,89,88.92,88.97, 13373
01/06/2020,21:11,88.98,89,88.9,88.95, 25448
01/06/2020,21:12,88.95,89,88.95,88.96, 15485
01/06/2020,21:13,88.97,88.98,88.83,88.83, 11396
01/06/2020,21:14,88.84,88.84,88.75,88.75, 5875
01/06/2020,21:15,88.76,88.81,88.75,88.8, 7666
01/06/2020,21:16,88.81,88.88,88.78,88.88, 8427
01/06/2020,21:17,88.89,88.9,88.79,88.79, 6374
01/06/2020,21:18,88.79,88.8,88.73,88.77, 10054
01/06/2020,21:19,88.77,88.83,88.73,88.81, 19517
01/06/2020,21:20,88.81,88.85,88.81,88.81, 6079
01/06/2020,21:21,88.8,88.87,88.8,88.83, 6821
01/06/2020,21:22,88.83,88.83,88.77,88.78, 5679
01/06/2020,21:23,88.8,88.83,88.74,88.74, 6107
01/06/2020,21:24,88.75,88.76,88.67,88.67, 11171
01/06/2020,21:25,88.68,88.75,88.66,88.74, 6100
01/06/2020,21:26,88.75,88.77,88.72,88.76, 6836
01/06/2020,21:27,88.77,88.78,88.76,88.76, 10480
01/06/2020,21:28,88.76,88.81,88.75,88.81, 8186
01/06/2020,21:29,88.82,88.86,88.79,88.84, 6329
01/06/2020,21:30,88.84,88.88,88.84,88.86, 6643
01/06/2020,21:31,88.86,88.86,88.67,88.7, 26613
01/06/2020,21:32,88.69,88.69,88.61,88.65, 13117
01/06/2020,21:33,88.65,88.65,88.5,88.5, 18115
01/06/2020,21:34,88.49,88.49,88.42,88.47, 16383
01/06/2020,21:35,88.47,88.47,88.29,88.31, 21542
01/06/2020,21:36,88.3,88.3,88.2,88.23, 11015
01/06/2020,21:37,88.22,88.25,88.18,88.18, 12034
01/06/2020,21:38,88.18,88.18,87.98,87.98, 12627
01/06/2020,21:39,87.99,88.12,87.98,88.01, 21171
01/06/2020,21:40,88.02,88.1,88.02,88.05, 16671
01/06/2020,21:41,88.06,88.09,88.02,88.04, 14199
01/06/2020,21:42,88.03,88.06,87.99,87.99, 15751
01/06/2020,21:43,87.99,88.09,87.96,88.09, 25281
01/06/2020,21:44,88.08,88.08,88.03,88.06, 16520
01/06/2020,21:45,88.06,88.11,88.06,88.11, 12862
01/06/2020,21:46,88.1,88.23,88.1,88.22, 17905
01/06/2020,21:47,88.22,88.29,88.2,88.26, 17435
01/06/2020,21:48,88.27,88.27,88.18,88.21, 20403
01/06/2020,21:49,88.22,88.24,88.2,88.22, 15498
01/06/2020,21:50,88.23,88.29,88.21,88.24, 15214
01/06/2020,21:51,88.25,88.28,88.17,88.2, 48034
01/06/2020,21:52,88.2,88.26,88.19,88.24, 25581
01/06/2020,21:53,88.24,88.29,88.23,88.26, 22481
01/06/2020,21:54,88.26,88.31,88.26,88.3, 32032
01/06/2020,21:55,88.3,88.31,88.23,88.28, 41589
01/06/2020,21:56,88.29,88.32,88.2,88.28, 43902
01/06/2020,21:57,88.28,88.28,88.26,88.26, 30721
01/06/2020,21:58,88.27,88.36,88.23,88.31, 70241
01/06/2020,21:59,88.31,88.37,88.31,88.36, 55394
01/06/2020,22:00,88.36,88.39,88.22,88.28, 144465
01/06/2020,22:00,88.27,88.45,88.27,88.44, 40760
01/06/2020,22:02,88.44,88.44,88.44,88.44, 904003
01/07/2020,15:31,88.63,88.75,87.86,88.02, 77859
01/07/2020,15:32,88.08,88.2,87.91,88.2, 3538
01/07/2020,15:33,88.1,88.15,88,88, 1924
01/07/2020,15:34,88,88,87.8,87.85, 7915
01/07/2020,15:35,87.89,87.94,87.83,87.94, 6613
01/07/2020,15:36,87.94,87.94,87.65,87.72, 7900
01/07/2020,15:37,87.7,87.79,87.62,87.7, 8653
01/07/2020,15:38,87.7,87.75,87.64,87.7, 7331
01/07/2020,15:39,87.74,87.81,87.65,87.67, 10850
01/07/2020,15:40,87.64,87.65,87.44,87.57, 19356
01/07/2020,15:41,87.57,87.6,87.39,87.47, 4950
01/07/2020,15:42,87.53,87.6,87.46,87.49, 9265
01/07/2020,15:43,87.5,87.66,87.48,87.66, 6900
01/07/2020,15:44,87.69,87.69,87.52,87.52, 3337
01/07/2020,15:45,87.51,87.64,87.47,87.51, 6886
01/07/2020,15:46,87.52,87.56,87.46,87.52, 3250
01/07/2020,15:47,87.44,87.46,87.33,87.33, 5985
01/07/2020,15:48,87.25,87.39,87.25,87.32, 18814
01/07/2020,15:49,87.28,87.44,87.23,87.35, 12759
01/07/2020,15:50,87.36,87.45,87.28,87.31, 7234
01/07/2020,15:51,87.31,87.54,87.31,87.54, 6877
01/07/2020,15:52,87.6,87.73,87.58,87.65, 13450
01/07/2020,15:53,87.65,87.77,87.64,87.69, 8238
01/07/2020,15:54,87.64,87.67,87.55,87.61, 1516
01/07/2020,15:55,87.62,87.79,87.62,87.79, 8742
01/07/2020,15:56,87.7,87.8,87.66,87.8, 5724
01/07/2020,15:57,87.75,87.88,87.75,87.84, 3558
01/07/2020,15:58,87.91,87.95,87.89,87.9, 9089
01/07/2020,15:59,87.91,87.93,87.71,87.71, 3142
01/07/2020,16:00,87.74,87.87,87.7,87.85, 166128
01/07/2020,16:01,87.81,87.81,87.66,87.67, 4052
01/07/2020,16:02,87.63,87.64,87.53,87.57, 5652
01/07/2020,16:03,87.56,87.64,87.5,87.64, 11757
01/07/2020,16:04,87.62,87.68,87.55,87.63, 18093
01/07/2020,16:05,87.64,87.69,87.56,87.67, 2003
01/07/2020,16:06,87.66,87.8,87.66,87.8, 6695
01/07/2020,16:07,87.74,87.91,87.72,87.87, 2107
01/07/2020,16:08,87.89,87.98,87.87,87.94, 3450
01/07/2020,16:09,87.95,87.99,87.9,87.9, 1543
01/07/2020,16:10,87.91,87.98,87.86,87.86, 4051
01/07/2020,16:11,87.85,87.88,87.79,87.81, 1368
01/07/2020,16:12,87.8,87.85,87.73,87.85, 3666
01/07/2020,16:13,87.86,87.96,87.84,87.96, 2157
01/07/2020,16:14,87.96,87.96,87.86,87.86, 6075
01/07/2020,16:15,87.88,87.99,87.87,87.89, 3134
01/07/2020,16:16,87.95,88,87.94,87.98, 10879
01/07/2020,16:17,87.98,88,87.95,87.96, 6575
01/07/2020,16:18,87.97,88,87.94,88, 7008
01/07/2020,16:19,88,88.21,87.97,88.16, 17976
01/07/2020,16:20,88.09,88.1,88.04,88.09, 2714
01/07/2020,16:21,88.07,88.1,87.96,88, 5697
01/07/2020,16:22,88.01,88.06,88.01,88.03, 1691
01/07/2020,16:23,88.02,88.02,87.98,87.98, 800
01/07/2020,16:24,87.99,87.99,87.88,87.97, 13346
01/07/2020,16:25,87.95,87.96,87.88,87.93, 5877
01/07/2020,16:26,87.92,87.94,87.83,87.83, 5396
01/07/2020,16:27,87.8,87.9,87.8,87.9, 700
01/07/2020,16:28,87.83,87.94,87.83,87.94, 4707
01/07/2020,16:29,87.89,87.95,87.89,87.93, 1681
01/07/2020,16:30,87.94,87.99,87.91,87.97, 2701
01/07/2020,16:31,87.99,88.07,87.99,88.04, 3012
01/07/2020,16:32,88,88,87.89,87.91, 3888
01/07/2020,16:33,87.86,87.86,87.74,87.75, 748
01/07/2020,16:34,87.82,88.06,87.79,88.06, 9317
01/07/2020,16:35,88.03,88.03,87.94,87.97, 2068
01/07/2020,16:36,87.95,88.04,87.9,88, 11019
01/07/2020,16:37,88.02,88.08,88.02,88.07, 2081
01/07/2020,16:38,88.08,88.14,88.08,88.1, 2700
01/07/2020,16:39,88.11,88.13,88.11,88.12, 17110
01/07/2020,16:40,88.12,88.15,88.11,88.15, 1949
01/07/2020,16:41,88.15,88.24,88.14,88.14, 3417
01/07/2020,16:42,88.15,88.18,88.12,88.15, 4520
01/07/2020,16:43,88.12,88.3,88.12,88.29, 4388
01/07/2020,16:44,88.29,88.32,88.21,88.25, 2689
01/07/2020,16:45,88.25,88.31,88.23,88.25, 2727
01/07/2020,16:46,88.21,88.25,88.14,88.22, 3508
01/07/2020,16:47,88.2,88.25,88.17,88.25, 1000
01/07/2020,16:48,88.27,88.31,88.26,88.29, 1725
01/07/2020,16:49,88.29,88.35,88.26,88.33, 3091
01/07/2020,16:50,88.31,88.33,88.22,88.25, 6043
01/07/2020,16:51,88.25,88.28,88.24,88.27, 8896
01/07/2020,16:52,88.29,88.29,88.19,88.19, 3908
01/07/2020,16:53,88.18,88.22,88.13,88.17, 5122
01/07/2020,16:54,88.16,88.2,88.09,88.19, 3760
01/07/2020,16:55,88.19,88.19,88.15,88.16, 1050
01/07/2020,16:56,88.14,88.14,88.09,88.11, 2564
01/07/2020,16:57,88.11,88.11,88.07,88.09, 8707
01/07/2020,16:58,88.08,88.15,88.08,88.15, 2758
01/07/2020,16:59,88.14,88.16,88.1,88.16, 5190
01/07/2020,17:00,88.14,88.16,88.07,88.12, 4033
01/07/2020,17:01,88.08,88.18,88.06,88.18, 5741
01/07/2020,17:02,88.25,88.3,88.22,88.22, 6400
01/07/2020,17:03,88.22,88.28,88.18,88.28, 3271
01/07/2020,17:04,88.28,88.28,88.24,88.27, 5973
01/07/2020,17:05,88.28,88.28,88.24,88.26, 2987
01/07/2020,17:06,88.25,88.26,88.24,88.25, 2359
01/07/2020,17:07,88.25,88.27,88.18,88.19, 5775
01/07/2020,17:08,88.18,88.2,88.15,88.2, 2469
01/07/2020,17:09,88.2,88.23,88.15,88.23, 2192
01/07/2020,17:10,88.23,88.23,88.17,88.17, 4772
01/07/2020,17:11,88.19,88.19,88.11,88.11, 3320
01/07/2020,17:12,88.13,88.18,88.1,88.18, 2595
01/07/2020,17:13,88.16,88.19,88.1,88.19, 6220
01/07/2020,17:14,88.17,88.19,88.1,88.13, 3963
01/07/2020,17:15,88.1,88.12,88.07,88.09, 8300
01/07/2020,17:16,88.09,88.11,88.06,88.06, 2500
01/07/2020,17:17,88.08,88.08,87.96,87.99, 16694
01/07/2020,17:18,87.99,88.04,87.94,87.96, 30163
01/07/2020,17:19,87.97,87.97,87.89,87.9, 3448
01/07/2020,17:20,87.88,87.94,87.87,87.94, 22954
01/07/2020,17:21,87.94,88,87.94,88, 3907
01/07/2020,17:22,88.02,88.02,87.9,87.92, 3261
01/07/2020,17:23,87.92,87.92,87.8,87.82, 9987
01/07/2020,17:24,87.82,87.9,87.8,87.8, 4039
01/07/2020,17:25,87.82,87.97,87.82,87.92, 5801
01/07/2020,17:26,87.92,87.95,87.89,87.94, 3800
01/07/2020,17:27,87.96,87.96,87.87,87.87, 1750
01/07/2020,17:28,87.87,88.01,87.87,88.01, 4655
01/07/2020,17:29,88.01,88.07,88,88.07, 4040
01/07/2020,17:30,88.04,88.06,88.03,88.05, 2287
01/07/2020,17:31,88.06,88.11,88.04,88.09, 1165
01/07/2020,17:32,88.1,88.1,88.01,88.01, 1150
01/07/2020,17:33,87.98,88.01,87.98,88, 2190
01/07/2020,17:34,87.98,87.99,87.95,87.98, 1597
01/07/2020,17:35,87.98,88,87.98,87.99, 2400
01/07/2020,17:36,87.99,88.03,87.96,87.98, 8141
01/07/2020,17:37,88,88.08,87.98,88.08, 1593
01/07/2020,17:38,88.07,88.07,88.01,88.01, 500
01/07/2020,17:39,88.02,88.02,87.97,88, 3783
01/07/2020,17:40,87.98,88.04,87.98,88.04, 650
01/07/2020,17:41,88.05,88.05,87.98,88.02, 7334
01/07/2020,17:42,88.05,88.05,88.03,88.04, 4402
01/07/2020,17:43,88,88.04,88,88.04, 701
01/07/2020,17:44,88.05,88.1,88.05,88.1, 4667
01/07/2020,17:45,88.11,88.11,88.01,88.05, 12630
01/07/2020,17:46,88.04,88.1,88.02,88.1, 2800
01/07/2020,17:47,88.1,88.12,88,88.03, 5422
01/07/2020,17:48,88.02,88.02,87.96,87.99, 1600
01/07/2020,17:49,87.94,87.94,87.9,87.92, 3067
01/07/2020,17:50,87.89,87.92,87.85,87.85, 1729
01/07/2020,17:51,87.8,87.8,87.74,87.74, 1600
01/07/2020,17:52,87.73,87.82,87.73,87.77, 8028
01/07/2020,17:53,87.81,87.84,87.81,87.81, 9788
01/07/2020,17:54,87.81,87.88,87.81,87.88, 5008
01/07/2020,17:55,87.87,87.87,87.79,87.79, 2475
01/07/2020,17:56,87.77,87.8,87.77,87.8, 5020
01/07/2020,17:57,87.82,87.83,87.79,87.83, 2942
01/07/2020,17:58,87.81,87.81,87.74,87.81, 3638
01/07/2020,17:59,87.82,87.89,87.82,87.85, 2953
01/07/2020,18:00,87.87,87.92,87.87,87.92, 1710
01/07/2020,18:01,87.89,87.89,87.8,87.83, 1010
01/07/2020,18:02,87.8,87.81,87.77,87.77, 1600
01/07/2020,18:03,87.74,87.78,87.72,87.77, 1802
01/07/2020,18:04,87.78,87.82,87.78,87.8, 12380
01/07/2020,18:05,87.8,87.8,87.75,87.77, 1900
01/07/2020,18:06,87.78,87.84,87.72,87.74, 32658
01/07/2020,18:07,87.74,87.75,87.74,87.74, 1101
01/07/2020,18:08,87.75,87.81,87.75,87.8, 1653
01/07/2020,18:09,87.81,87.83,87.8,87.81, 500
01/07/2020,18:10,87.81,87.86,87.81,87.84, 5651
01/07/2020,18:11,87.84,87.85,87.78,87.78, 1978
01/07/2020,18:12,87.78,87.85,87.78,87.85, 1582
01/07/2020,18:13,87.87,87.89,87.86,87.87, 2120
01/07/2020,18:14,87.9,87.91,87.83,87.87, 1787
01/07/2020,18:15,87.87,87.87,87.8,87.8, 800
01/07/2020,18:16,87.79,87.79,87.76,87.77, 3506
01/07/2020,18:17,87.77,87.83,87.77,87.82, 154921
01/07/2020,18:18,87.83,87.85,87.81,87.81, 11915
01/07/2020,18:19,87.81,87.82,87.79,87.79, 6195
01/07/2020,18:20,87.81,87.86,87.8,87.82, 5485
01/07/2020,18:21,87.82,87.86,87.81,87.86, 4256
01/07/2020,18:22,87.89,87.9,87.88,87.88, 1399
01/07/2020,18:23,87.88,87.9,87.88,87.88, 1200
01/07/2020,18:24,87.9,87.91,87.89,87.89, 1265
01/07/2020,18:25,87.9,87.91,87.83,87.86, 8225
01/07/2020,18:26,87.86,87.92,87.86,87.92, 4190
01/07/2020,18:27,87.89,87.91,87.88,87.91, 4981
01/07/2020,18:28,87.9,87.9,87.86,87.87, 9721
01/07/2020,18:29,87.83,87.84,87.83,87.84, 1241
01/07/2020,18:30,87.85,87.87,87.85,87.87, 2369
01/07/2020,18:31,87.88,87.89,87.83,87.83, 2206
01/07/2020,18:32,87.82,87.82,87.74,87.74, 3832
01/07/2020,18:33,87.77,87.82,87.76,87.82, 6361
01/07/2020,18:34,87.81,87.85,87.78,87.85, 18016
01/07/2020,18:35,87.85,87.85,87.77,87.81, 3569
01/07/2020,18:36,87.82,87.84,87.8,87.84, 4111
01/07/2020,18:37,87.83,87.84,87.81,87.82, 14300
01/07/2020,18:38,87.83,87.83,87.77,87.77, 3670
01/07/2020,18:39,87.76,87.82,87.75,87.81, 8006
01/07/2020,18:40,87.81,87.84,87.8,87.84, 5737
01/07/2020,18:41,87.83,87.85,87.81,87.82, 8333
01/07/2020,18:42,87.81,87.86,87.81,87.85, 3900
01/07/2020,18:43,87.85,87.87,87.84,87.85, 9904
01/07/2020,18:44,87.85,87.87,87.85,87.87, 2580
01/07/2020,18:45,87.85,87.91,87.85,87.91, 1801
01/07/2020,18:46,87.91,87.92,87.88,87.88, 1300
01/07/2020,18:47,87.91,87.91,87.87,87.89, 810
01/07/2020,18:48,87.89,87.92,87.89,87.9, 1490
01/07/2020,18:49,87.91,87.92,87.9,87.9, 527
01/07/2020,18:50,87.87,87.87,87.82,87.82, 1213
01/07/2020,18:51,87.83,87.88,87.83,87.88, 1931
01/07/2020,18:52,87.89,87.93,87.86,87.9, 2691
01/07/2020,18:53,87.92,87.92,87.9,87.9, 1600
01/07/2020,18:54,87.91,88,87.91,87.99, 10536
01/07/2020,18:55,87.97,88.01,87.95,88.01, 12407
01/07/2020,18:56,88.01,88.01,87.99,87.99, 1750
01/07/2020,18:57,87.99,88.03,87.98,88.02, 2420
01/07/2020,18:58,88.04,88.05,88.03,88.05, 4063
01/07/2020,18:59,88.01,88.03,87.99,88, 3912
01/07/2020,19:00,87.99,87.99,87.95,87.95, 4225
01/07/2020,19:01,87.97,87.99,87.97,87.98, 2221
01/07/2020,19:02,87.99,88,87.97,87.99, 7522
01/07/2020,19:03,87.97,88.02,87.97,88, 3992
01/07/2020,19:04,88.01,88.06,88.01,88.04, 4788
01/07/2020,19:05,88.02,88.03,87.99,88.02, 3435
01/07/2020,19:06,88,88,87.97,87.99, 3144
01/07/2020,19:07,88.01,88.01,88.01,88.01, 857
01/07/2020,19:08,88.01,88.05,88,88.03, 2854
01/07/2020,19:09,88.01,88.05,88.01,88.05, 253
01/07/2020,19:10,88.03,88.07,88.02,88.03, 3195
01/07/2020,19:11,88.01,88.02,88,88.01, 2258
01/07/2020,19:12,88.03,88.04,88,88, 1750
01/07/2020,19:13,88,88.02,87.98,87.98, 34101
01/07/2020,19:14,87.99,87.99,87.92,87.96, 2865
01/07/2020,19:15,87.97,88.02,87.97,87.99, 3036
01/07/2020,19:16,87.98,88.02,87.98,88.01, 1462
01/07/2020,19:17,88.03,88.07,88.03,88.05, 3628
01/07/2020,19:18,88.02,88.04,87.98,87.98, 2067
01/07/2020,19:19,87.98,87.98,87.97,87.97, 1776
01/07/2020,19:20,87.97,88.04,87.97,88.04, 2302
01/07/2020,19:21,88.02,88.02,88.02,88.02, 281
01/07/2020,19:22,87.99,88.03,87.99,88, 4199
01/07/2020,19:23,88,88.06,88,88.06, 1835
01/07/2020,19:24,88.02,88.02,87.99,88.02, 1994
01/07/2020,19:25,88,88,87.99,88, 3126
01/07/2020,19:26,88,88.03,88,88.03, 2133
01/07/2020,19:27,88.04,88.04,88.04,88.04, 600
01/07/2020,19:28,88.04,88.05,88.02,88.04, 1998
01/07/2020,19:29,88.05,88.05,88,88, 2619
01/07/2020,19:30,88.02,88.03,88.02,88.03, 800
01/07/2020,19:31,88.03,88.05,87.99,87.99, 2366
01/07/2020,19:32,87.95,87.98,87.95,87.98, 200
01/07/2020,19:33,87.98,88.04,87.98,88.02, 3989
01/07/2020,19:34,88.03,88.04,87.99,88.01, 2925
01/07/2020,19:35,88.02,88.02,87.99,88, 2603
01/07/2020,19:36,87.99,88.03,87.98,87.99, 1201
01/07/2020,19:37,87.99,87.99,87.95,87.97, 1739
01/07/2020,19:38,87.97,87.97,87.95,87.95, 1296
01/07/2020,19:39,87.95,87.97,87.94,87.97, 1301
01/07/2020,19:40,87.97,87.98,87.97,87.97, 1400
01/07/2020,19:41,87.96,88,87.96,88, 2244
01/07/2020,19:42,88,88,88,88, 858
01/07/2020,19:43,88.01,88.01,87.99,87.99, 6206
01/07/2020,19:44,88,88.04,87.99,87.99, 2500
01/07/2020,19:45,87.99,88.01,87.99,87.99, 3946
01/07/2020,19:46,88,88,87.98,88, 1237
01/07/2020,19:47,88,88.04,88,88.02, 5198
01/07/2020,19:48,88.02,88.04,88.02,88.04, 1911
01/07/2020,19:49,88.03,88.08,88.02,88.07, 2876
01/07/2020,19:50,88.08,88.11,88.06,88.1, 2726
01/07/2020,19:51,88.11,88.14,88.11,88.14, 1589
01/07/2020,19:52,88.14,88.14,88.13,88.14, 2381
01/07/2020,19:53,88.16,88.18,88.12,88.12, 6747
01/07/2020,19:54,88.1,88.11,88.09,88.09, 1972
01/07/2020,19:55,88.1,88.12,88.09,88.1, 3323
01/07/2020,19:56,88.09,88.11,88.06,88.09, 3139
01/07/2020,19:57,88.1,88.15,88.1,88.13, 1220
01/07/2020,19:58,88.15,88.18,88.14,88.16, 3036
01/07/2020,19:59,88.15,88.16,88.13,88.14, 1808
01/07/2020,20:00,88.14,88.15,88.13,88.15, 1412
01/07/2020,20:01,88.13,88.17,88.12,88.12, 6335
01/07/2020,20:02,88.13,88.13,88.1,88.1, 1812
01/07/2020,20:03,88.1,88.16,88.09,88.15, 3259
01/07/2020,20:04,88.14,88.17,88.14,88.17, 2400
01/07/2020,20:05,88.17,88.17,88.1,88.12, 8218
01/07/2020,20:06,88.13,88.15,88.12,88.15, 2255
01/07/2020,20:07,88.16,88.16,88.14,88.14, 2891
01/07/2020,20:08,88.15,88.16,88.14,88.14, 2586
01/07/2020,20:09,88.15,88.18,88.15,88.18, 2723
01/07/2020,20:10,88.17,88.17,88.14,88.14, 4794
01/07/2020,20:11,88.13,88.14,88.08,88.11, 3092
01/07/2020,20:12,88.11,88.14,88.11,88.14, 3903
01/07/2020,20:13,88.13,88.19,88.13,88.19, 3133
01/07/2020,20:14,88.2,88.21,88.15,88.17, 4483
01/07/2020,20:15,88.17,88.17,88.14,88.14, 1160
01/07/2020,20:16,88.14,88.18,88.14,88.15, 3269
01/07/2020,20:17,88.17,88.17,88.14,88.16, 2400
01/07/2020,20:18,88.18,88.25,88.18,88.25, 2350
01/07/2020,20:19,88.26,88.26,88.2,88.21, 3810
01/07/2020,20:20,88.22,88.26,88.2,88.26, 2250
01/07/2020,20:21,88.25,88.29,88.22,88.26, 4219
01/07/2020,20:22,88.26,88.27,88.24,88.24, 1627
01/07/2020,20:23,88.25,88.29,88.25,88.28, 1904
01/07/2020,20:24,88.27,88.33,88.25,88.33, 6096
01/07/2020,20:25,88.32,88.34,88.32,88.32, 4947
01/07/2020,20:26,88.33,88.37,88.33,88.35, 3235
01/07/2020,20:27,88.33,88.39,88.33,88.36, 2900
01/07/2020,20:28,88.35,88.37,88.35,88.37, 800
01/07/2020,20:29,88.4,88.42,88.38,88.39, 3400
01/07/2020,20:30,88.39,88.43,88.38,88.43, 6730
01/07/2020,20:31,88.41,88.43,88.33,88.35, 5344
01/07/2020,20:32,88.36,88.36,88.35,88.35, 900
01/07/2020,20:33,88.34,88.34,88.32,88.34, 3913
01/07/2020,20:34,88.35,88.39,88.33,88.37, 2510
01/07/2020,20:35,88.36,88.43,88.36,88.4, 2000
01/07/2020,20:36,88.39,88.43,88.39,88.4, 2262
01/07/2020,20:37,88.4,88.42,88.4,88.41, 1126
01/07/2020,20:38,88.38,88.39,88.37,88.38, 1952
01/07/2020,20:39,88.38,88.39,88.36,88.36, 2900
01/07/2020,20:40,88.38,88.39,88.35,88.36, 2218
01/07/2020,20:41,88.36,88.41,88.36,88.4, 3820
01/07/2020,20:42,88.41,88.45,88.39,88.44, 3900
01/07/2020,20:43,88.45,88.5,88.44,88.46, 3509
01/07/2020,20:44,88.45,88.47,88.45,88.45, 28573
01/07/2020,20:45,88.45,88.45,88.39,88.39, 2575
01/07/2020,20:46,88.39,88.39,88.34,88.36, 2900
01/07/2020,20:47,88.36,88.45,88.36,88.45, 4760
01/07/2020,20:48,88.44,88.48,88.44,88.48, 2652
01/07/2020,20:49,88.48,88.49,88.47,88.47, 3955
01/07/2020,20:50,88.47,88.52,88.46,88.46, 6992
01/07/2020,20:51,88.47,88.54,88.46,88.53, 6478
01/07/2020,20:52,88.54,88.57,88.52,88.56, 2800
01/07/2020,20:53,88.55,88.59,88.53,88.56, 5022
01/07/2020,20:54,88.56,88.56,88.51,88.53, 3788
01/07/2020,20:55,88.56,88.58,88.55,88.56, 2154
01/07/2020,20:56,88.55,88.55,88.47,88.52, 3670
01/07/2020,20:57,88.51,88.54,88.51,88.51, 1327
01/07/2020,20:58,88.5,88.55,88.5,88.51, 1204
01/07/2020,20:59,88.52,88.56,88.51,88.56, 2068
01/07/2020,21:00,88.57,88.59,88.55,88.55, 2050
01/07/2020,21:01,88.57,88.61,88.55,88.6, 6629
01/07/2020,21:02,88.59,88.6,88.59,88.59, 1500
01/07/2020,21:03,88.58,88.58,88.51,88.53, 7246
01/07/2020,21:04,88.52,88.55,88.51,88.55, 2979
01/07/2020,21:05,88.55,88.55,88.52,88.53, 1845
01/07/2020,21:06,88.51,88.56,88.51,88.54, 3118
01/07/2020,21:07,88.56,88.56,88.54,88.55, 1001
01/07/2020,21:08,88.53,88.54,88.52,88.52, 2674
01/07/2020,21:09,88.54,88.6,88.54,88.56, 3762
01/07/2020,21:10,88.56,88.6,88.53,88.53, 2909
01/07/2020,21:11,88.55,88.6,88.55,88.6, 1896
01/07/2020,21:12,88.61,88.65,88.61,88.64, 3113
01/07/2020,21:13,88.63,88.63,88.57,88.6, 2519
01/07/2020,21:14,88.62,88.67,88.61,88.67, 1801
01/07/2020,21:15,88.68,88.68,88.64,88.66, 3204
01/07/2020,21:16,88.67,88.71,88.67,88.7, 1931
01/07/2020,21:17,88.7,88.71,88.69,88.69, 1627
01/07/2020,21:18,88.7,88.73,88.68,88.69, 4960
01/07/2020,21:19,88.69,88.71,88.67,88.71, 5577
01/07/2020,21:20,88.7,88.72,88.69,88.69, 2434
01/07/2020,21:21,88.7,88.74,88.69,88.73, 4296
01/07/2020,21:22,88.74,88.84,88.71,88.71, 7075
01/07/2020,21:23,88.7,88.75,88.7,88.72, 5661
01/07/2020,21:24,88.73,88.74,88.69,88.7, 4452
01/07/2020,21:25,88.7,88.73,88.69,88.71, 3308
01/07/2020,21:26,88.71,88.72,88.7,88.7, 4418
01/07/2020,21:27,88.71,88.71,88.66,88.67, 5238
01/07/2020,21:28,88.67,88.72,88.67,88.69, 3320
01/07/2020,21:29,88.68,88.68,88.66,88.67, 2198
01/07/2020,21:30,88.67,88.7,88.66,88.69, 2759
01/07/2020,21:31,88.68,88.71,88.62,88.71, 5624
01/07/2020,21:32,88.7,88.73,88.7,88.72, 3000
01/07/2020,21:33,88.73,88.76,88.7,88.75, 4331
01/07/2020,21:34,88.75,88.79,88.73,88.78, 4014
01/07/2020,21:35,88.8,88.82,88.78,88.79, 6416
01/07/2020,21:36,88.82,88.85,88.81,88.84, 10800
01/07/2020,21:37,88.84,88.9,88.83,88.88, 8772
01/07/2020,21:38,88.89,88.9,88.87,88.89, 8305
01/07/2020,21:39,88.89,88.93,88.89,88.92, 6913
01/07/2020,21:40,88.93,88.96,88.93,88.96, 6932
01/07/2020,21:41,88.96,88.98,88.94,88.96, 11147
01/07/2020,21:42,88.95,89.06,88.95,89.05, 14237
01/07/2020,21:43,89.06,89.11,89.04,89.07, 22323
01/07/2020,21:44,89.07,89.07,89.04,89.07, 7925
01/07/2020,21:45,89.08,89.1,89.06,89.07, 10030
01/07/2020,21:46,89.07,89.08,89.02,89.08, 12356
01/07/2020,21:47,89.08,89.13,89.08,89.11, 11583
01/07/2020,21:48,89.08,89.1,89.04,89.05, 7413
01/07/2020,21:49,89.05,89.12,89.05,89.09, 11141
01/07/2020,21:50,89.08,89.09,89.06,89.06, 7889
01/07/2020,21:51,89.03,89.1,89,89.02, 14412
01/07/2020,21:52,89.01,89.06,88.99,89, 12329
01/07/2020,21:53,89,89.05,88.97,88.97, 16509
01/07/2020,21:54,88.97,89.01,88.94,88.94, 14656
01/07/2020,21:55,88.92,89.01,88.92,89.01, 15009
01/07/2020,21:56,89.01,89.02,88.89,88.9, 40483
01/07/2020,21:57,88.9,88.92,88.86,88.9, 24718
01/07/2020,21:58,88.9,89.04,88.89,89.04, 25754
01/07/2020,21:59,89.04,89.09,89,89.08, 31857
01/07/2020,22:00,89.08,89.32,89.07,89.3, 171015
01/07/2020,22:01,89.3,89.33,89.24,89.29, 787419
01/08/2020,15:31,89.24,89.45,89.24,89.31, 87767
01/08/2020,15:32,89.26,89.47,89.18,89.47, 6265
01/08/2020,15:33,89.39,89.39,89.17,89.17, 2022
01/08/2020,15:34,89.2,89.28,89.13,89.17, 6861
01/08/2020,15:35,89.23,89.35,89.01,89.22, 14996
01/08/2020,15:36,89.16,89.23,88.81,88.88, 11300
01/08/2020,15:37,88.96,89.1,88.9,89.08, 19669
01/08/2020,15:38,89.08,89.19,88.86,88.94, 17482
01/08/2020,15:39,88.97,89.09,88.9,89, 9279
01/08/2020,15:40,89.01,89.1,88.96,89.1, 3300
01/08/2020,15:41,89.08,89.1,88.93,88.96, 5310
01/08/2020,15:42,89,89.1,88.98,89.04, 4400
01/08/2020,15:43,89.04,89.08,88.99,89.01, 8521
01/08/2020,15:44,89,89,88.9,88.9, 10297
01/08/2020,15:45,88.93,89.04,88.86,88.99, 5512
01/08/2020,15:46,89.01,89.1,88.97,89.06, 4194
01/08/2020,15:47,89.1,89.13,89.03,89.06, 4754
01/08/2020,15:48,89.04,89.04,88.94,88.99, 9195
01/08/2020,15:49,89,89.02,88.98,89.02, 1617
01/08/2020,15:50,89.05,89.13,89.04,89.12, 4855
01/08/2020,15:51,89.11,89.11,88.97,89.03, 5223
01/08/2020,15:52,89.01,89.08,89.01,89.05, 2275
01/08/2020,15:53,89.09,89.14,88.96,88.97, 10394
01/08/2020,15:54,88.93,88.97,88.86,88.97, 7340
01/08/2020,15:55,88.97,89,88.95,88.97, 2301
01/08/2020,15:56,88.92,89.05,88.92,89.05, 5478
01/08/2020,15:57,89.04,89.16,89,89.02, 6413
01/08/2020,15:58,89.02,89.04,88.98,89.02, 5530
01/08/2020,15:59,89.02,89.05,89.01,89.03, 2000
01/08/2020,16:00,89,89.04,88.98,89.04, 4400
01/08/2020,16:01,89.05,89.05,88.97,88.98, 4500
01/08/2020,16:02,89,89,88.87,88.88, 13879
01/08/2020,16:03,88.88,88.92,88.83,88.87, 3896
01/08/2020,16:04,88.88,88.88,88.84,88.85, 3739
01/08/2020,16:05,88.84,88.93,88.84,88.93, 14793
01/08/2020,16:06,88.94,88.95,88.9,88.94, 11714
01/08/2020,16:07,88.94,89.03,88.94,89, 13511
01/08/2020,16:08,88.99,88.99,88.92,88.92, 8160
01/08/2020,16:09,88.92,88.96,88.86,88.86, 7608
01/08/2020,16:10,88.86,88.91,88.86,88.86, 17655
01/08/2020,16:11,88.87,88.87,88.74,88.78, 12196
01/08/2020,16:12,88.78,88.84,88.77,88.81, 17501
01/08/2020,16:13,88.79,88.79,88.68,88.72, 25674
01/08/2020,16:14,88.73,88.77,88.72,88.74, 14735
01/08/2020,16:15,88.73,88.73,88.57,88.59, 6783
01/08/2020,16:16,88.54,88.62,88.54,88.57, 19362
01/08/2020,16:17,88.58,88.62,88.56,88.61, 10983
01/08/2020,16:18,88.61,88.62,88.45,88.52, 17143
01/08/2020,16:19,88.51,88.51,88.47,88.51, 27132
01/08/2020,16:20,88.51,88.51,88.3,88.33, 13572
01/08/2020,16:21,88.36,88.46,88.36,88.43, 19691
01/08/2020,16:22,88.43,88.46,88.37,88.46, 2400
01/08/2020,16:23,88.54,88.56,88.48,88.51, 8885
01/08/2020,16:24,88.52,88.53,88.4,88.4, 13706
01/08/2020,16:25,88.42,88.42,88.36,88.38, 10643
01/08/2020,16:26,88.35,88.36,88.27,88.32, 4126
01/08/2020,16:27,88.32,88.33,88.3,88.33, 6165
01/08/2020,16:28,88.34,88.38,88.33,88.35, 7844
01/08/2020,16:29,88.37,88.47,88.37,88.47, 7424
01/08/2020,16:30,88.47,88.51,88.46,88.47, 3699
01/08/2020,16:31,88.5,88.64,87.85,87.92, 33615
01/08/2020,16:32,87.94,88.01,87.68,87.73, 18954
01/08/2020,16:33,87.73,87.94,87.71,87.88, 8678
01/08/2020,16:34,87.83,87.9,87.76,87.89, 8419
01/08/2020,16:35,87.89,88,87.89,87.98, 6641
01/08/2020,16:36,87.96,88.03,87.95,87.99, 4355
01/08/2020,16:37,88.04,88.09,87.95,88, 10367
01/08/2020,16:38,88,88.04,87.8,87.8, 9215
01/08/2020,16:39,87.79,87.89,87.78,87.85, 4056
01/08/2020,16:40,87.85,87.94,87.78,87.78, 20039
01/08/2020,16:41,87.8,87.91,87.7,87.91, 22297
01/08/2020,16:42,87.9,88.02,87.88,88.02, 9617
01/08/2020,16:43,88,88.02,87.87,87.91, 12729
01/08/2020,16:44,87.93,88.02,87.93,88, 9139
01/08/2020,16:45,88,88.02,87.92,87.97, 22796
01/08/2020,16:46,87.93,87.93,87.77,87.83, 6817
01/08/2020,16:47,87.84,87.92,87.77,87.92, 7482
01/08/2020,16:48,87.94,87.97,87.9,87.9, 6625
01/08/2020,16:49,87.9,88.01,87.9,88, 16309
01/08/2020,16:50,88,88.05,87.92,88.03, 3120
01/08/2020,16:51,88.07,88.07,88.01,88.01, 4359
01/08/2020,16:52,88.03,88.06,87.96,87.97, 2112
01/08/2020,16:53,87.97,88.18,87.97,88.18, 5594
01/08/2020,16:54,88.18,88.21,88.18,88.21, 4010
01/08/2020,16:55,88.23,88.35,88.17,88.31, 7185
01/08/2020,16:56,88.35,88.41,88.27,88.3, 4292
01/08/2020,16:57,88.29,88.33,88.29,88.32, 1238
01/08/2020,16:58,88.31,88.31,88.19,88.21, 5500
01/08/2020,16:59,88.2,88.22,88.15,88.2, 4810
01/08/2020,17:00,88.22,88.22,88.15,88.19, 4061
01/08/2020,17:01,88.2,88.26,88.16,88.2, 8084
01/08/2020,17:02,88.18,88.21,88.15,88.21, 5452
01/08/2020,17:03,88.26,88.3,88.23,88.27, 5442
01/08/2020,17:04,88.25,88.25,88.23,88.23, 555
01/08/2020,17:05,88.25,88.38,88.25,88.36, 3803
01/08/2020,17:06,88.35,88.38,88.32,88.36, 2827
01/08/2020,17:07,88.37,88.4,88.25,88.31, 15449
01/08/2020,17:08,88.34,88.38,88.34,88.34, 6905
01/08/2020,17:09,88.4,88.4,88.26,88.3, 4855
01/08/2020,17:10,88.27,88.33,88.23,88.31, 3785
01/08/2020,17:11,88.33,88.42,88.31,88.31, 6254
01/08/2020,17:12,88.3,88.31,88.25,88.26, 4456
01/08/2020,17:13,88.26,88.35,88.26,88.3, 16263
01/08/2020,17:14,88.32,88.33,88.18,88.18, 12489
01/08/2020,17:15,88.18,88.25,88.16,88.18, 9051
01/08/2020,17:16,88.19,88.2,88.18,88.19, 10325
01/08/2020,17:17,88.18,88.18,88.1,88.15, 9925
01/08/2020,17:18,88.17,88.22,88.17,88.2, 6220
01/08/2020,17:19,88.2,88.2,88.12,88.12, 9676
01/08/2020,17:20,88.12,88.18,88.12,88.17, 4944
01/08/2020,17:21,88.19,88.26,88.16,88.26, 3313
01/08/2020,17:22,88.25,88.28,88.18,88.18, 3410
01/08/2020,17:23,88.18,88.19,88.12,88.14, 3303
01/08/2020,17:24,88.15,88.23,88.14,88.2, 10206
01/08/2020,17:25,88.23,88.25,88.19,88.22, 3284
01/08/2020,17:26,88.21,88.26,88.21,88.26, 32800
01/08/2020,17:27,88.23,88.26,88.19,88.23, 4900
01/08/2020,17:28,88.23,88.32,88.23,88.32, 7482
01/08/2020,17:29,88.31,88.31,88.21,88.25, 3750
01/08/2020,17:30,88.26,88.26,88.09,88.15, 9808
01/08/2020,17:31,88.07,88.11,88,88.02, 6702
01/08/2020,17:32,88.03,88.12,88,88.02, 11659
01/08/2020,17:33,88.01,88.05,87.92,87.93, 25399
01/08/2020,17:34,87.88,87.92,87.83,87.89, 4900
01/08/2020,17:35,87.92,87.94,87.8,87.8, 4652
01/08/2020,17:36,87.83,87.98,87.83,87.95, 21045
01/08/2020,17:37,87.93,87.93,87.76,87.78, 27068
01/08/2020,17:38,87.81,87.84,87.71,87.72, 7200
01/08/2020,17:39,87.71,87.72,87.57,87.65, 37283
01/08/2020,17:40,87.65,87.7,87.52,87.68, 53157
01/08/2020,17:41,87.65,87.8,87.65,87.8, 26702
01/08/2020,17:42,87.85,87.87,87.72,87.72, 15702
01/08/2020,17:43,87.74,87.8,87.7,87.8, 26744
01/08/2020,17:44,87.79,87.89,87.77,87.82, 21142
01/08/2020,17:45,87.81,87.83,87.7,87.72, 12065
01/08/2020,17:46,87.7,87.73,87.57,87.57, 16420
01/08/2020,17:47,87.53,87.55,87.42,87.45, 12205
01/08/2020,17:48,87.44,87.56,87.32,87.56, 33528
01/08/2020,17:49,87.6,87.62,87.44,87.44, 11537
01/08/2020,17:50,87.44,87.53,87.44,87.5, 15825
01/08/2020,17:51,87.5,87.51,87.39,87.44, 25523
01/08/2020,17:52,87.42,87.5,87.35,87.43, 19951
01/08/2020,17:53,87.43,87.44,87.22,87.23, 8231
01/08/2020,17:54,87.19,87.21,87.07,87.2, 14774
01/08/2020,17:55,87.2,87.26,87.06,87.1, 15921
01/08/2020,17:56,87.08,87.08,86.97,87.02, 15263
01/08/2020,17:57,87,87.08,87,87.06, 19018
01/08/2020,17:58,87.06,87.16,87.06,87.1, 21459
01/08/2020,17:59,87.09,87.3,87.07,87.19, 37848
01/08/2020,18:00,87.19,87.26,87.19,87.22, 15562
01/08/2020,18:01,87.21,87.27,87.14,87.23, 9800
01/08/2020,18:02,87.23,87.24,87.16,87.21, 10862
01/08/2020,18:03,87.23,87.29,87.21,87.29, 12040
01/08/2020,18:04,87.27,87.31,87.24,87.27, 2556
01/08/2020,18:05,87.23,87.27,87.22,87.23, 12963
01/08/2020,18:06,87.22,87.32,87.21,87.27, 5248
01/08/2020,18:07,87.28,87.4,87.28,87.36, 7744
01/08/2020,18:08,87.36,87.52,87.32,87.52, 9645
01/08/2020,18:09,87.53,87.61,87.51,87.6, 7953
01/08/2020,18:10,87.6,87.66,87.59,87.66, 12720
01/08/2020,18:11,87.64,87.75,87.6,87.75, 10872
01/08/2020,18:12,87.75,87.76,87.67,87.74, 8272
01/08/2020,18:13,87.74,87.79,87.71,87.72, 2618
01/08/2020,18:14,87.7,87.74,87.6,87.68, 6386
01/08/2020,18:15,87.68,87.75,87.68,87.75, 6489
01/08/2020,18:16,87.73,87.77,87.72,87.76, 4449
01/08/2020,18:17,87.74,87.78,87.71,87.75, 8093
01/08/2020,18:18,87.72,87.74,87.67,87.68, 5601
01/08/2020,18:19,87.67,87.74,87.67,87.71, 13443
01/08/2020,18:20,87.7,87.75,87.68,87.72, 18516
01/08/2020,18:21,87.72,87.92,87.67,87.8, 43377
01/08/2020,18:22,87.82,87.83,87.67,87.7, 12900
01/08/2020,18:23,87.7,87.72,87.67,87.69, 13434
01/08/2020,18:24,87.69,87.72,87.68,87.7, 9749
01/08/2020,18:25,87.7,87.72,87.68,87.7, 7628
01/08/2020,18:26,87.7,87.78,87.68,87.72, 13984
01/08/2020,18:27,87.72,87.74,87.64,87.66, 3560
01/08/2020,18:28,87.67,87.68,87.61,87.66, 8672
01/08/2020,18:29,87.64,87.71,87.64,87.7, 8951
01/08/2020,18:30,87.7,87.73,87.7,87.73, 7989
01/08/2020,18:31,87.73,87.73,87.64,87.65, 4000
01/08/2020,18:32,87.66,87.68,87.62,87.63, 2250
01/08/2020,18:33,87.62,87.63,87.55,87.58, 3700
01/08/2020,18:34,87.58,87.65,87.58,87.62, 4615
01/08/2020,18:35,87.62,87.63,87.58,87.61, 4102
01/08/2020,18:36,87.63,87.74,87.63,87.73, 4567
01/08/2020,18:37,87.73,87.78,87.71,87.74, 5002
01/08/2020,18:38,87.74,87.76,87.71,87.71, 4829
01/08/2020,18:39,87.65,87.69,87.64,87.67, 10248
01/08/2020,18:40,87.67,87.71,87.67,87.7, 6300
01/08/2020,18:41,87.7,87.77,87.69,87.69, 25262
01/08/2020,18:42,87.7,87.72,87.67,87.72, 8221
01/08/2020,18:43,87.73,87.74,87.69,87.71, 4627
01/08/2020,18:44,87.71,87.74,87.7,87.72, 5200
01/08/2020,18:45,87.72,87.78,87.72,87.75, 4312
01/08/2020,18:46,87.73,87.76,87.71,87.71, 2201
01/08/2020,18:47,87.71,87.77,87.71,87.75, 4247
01/08/2020,18:48,87.75,87.82,87.75,87.82, 6230
01/08/2020,18:49,87.83,87.86,87.82,87.85, 5112
01/08/2020,18:50,87.86,87.96,87.75,87.77, 17357
01/08/2020,18:51,87.76,87.76,87.68,87.71, 8268
01/08/2020,18:52,87.72,87.73,87.7,87.72, 6346
01/08/2020,18:53,87.73,87.78,87.7,87.76, 3550
01/08/2020,18:54,87.78,87.8,87.75,87.78, 1884
01/08/2020,18:55,87.77,87.77,87.71,87.71, 2189
01/08/2020,18:56,87.68,87.7,87.66,87.7, 9124
01/08/2020,18:57,87.7,87.72,87.68,87.71, 7904
01/08/2020,18:58,87.71,87.83,87.71,87.81, 2375
01/08/2020,18:59,87.75,87.77,87.72,87.77, 19177
01/08/2020,19:00,87.75,87.77,87.73,87.73, 9072
01/08/2020,19:01,87.72,87.74,87.68,87.69, 10344
01/08/2020,19:02,87.71,87.71,87.62,87.62, 1345
01/08/2020,19:03,87.59,87.64,87.59,87.63, 2972
01/08/2020,19:04,87.62,87.66,87.62,87.66, 7206
01/08/2020,19:05,87.64,87.7,87.64,87.7, 16425
01/08/2020,19:06,87.71,87.73,87.68,87.7, 10330
01/08/2020,19:07,87.7,87.74,87.69,87.7, 8461
01/08/2020,19:08,87.72,87.72,87.7,87.71, 1000
01/08/2020,19:09,87.71,87.74,87.69,87.74, 2966
01/08/2020,19:10,87.75,87.75,87.71,87.71, 3300
01/08/2020,19:11,87.72,87.74,87.7,87.74, 11333
01/08/2020,19:12,87.71,87.78,87.7,87.78, 3102
01/08/2020,19:13,87.78,87.82,87.76,87.77, 1324
01/08/2020,19:14,87.76,87.76,87.72,87.74, 11703
01/08/2020,19:15,87.76,87.76,87.73,87.73, 8135
01/08/2020,19:16,87.74,87.74,87.71,87.71, 9074
01/08/2020,19:17,87.7,87.73,87.7,87.72, 2729
01/08/2020,19:18,87.72,87.72,87.69,87.69, 6721
01/08/2020,19:19,87.69,87.73,87.67,87.7, 7660
01/08/2020,19:20,87.72,87.78,87.72,87.77, 1400
01/08/2020,19:21,87.76,87.76,87.72,87.72, 4751
01/08/2020,19:22,87.72,87.77,87.71,87.75, 5532
01/08/2020,19:23,87.75,87.76,87.74,87.76, 900
01/08/2020,19:24,87.77,87.77,87.75,87.75, 1946
01/08/2020,19:25,87.73,87.75,87.72,87.74, 1857
01/08/2020,19:26,87.74,87.74,87.71,87.72, 8821
01/08/2020,19:27,87.72,87.74,87.7,87.72, 3934
01/08/2020,19:28,87.72,87.75,87.71,87.74, 5515
01/08/2020,19:29,87.73,87.77,87.71,87.77, 2847
01/08/2020,19:30,87.77,87.83,87.77,87.83, 3666
01/08/2020,19:31,87.83,87.86,87.81,87.83, 3150
01/08/2020,19:32,87.85,87.87,87.79,87.79, 4726
01/08/2020,19:33,87.76,87.82,87.75,87.8, 3551
01/08/2020,19:34,87.82,87.83,87.82,87.82, 800
01/08/2020,19:35,87.82,87.85,87.82,87.84, 1834
01/08/2020,19:36,87.86,87.94,87.86,87.94, 3224
01/08/2020,19:37,87.92,87.95,87.91,87.95, 2602
01/08/2020,19:38,87.94,87.95,87.89,87.9, 3950
01/08/2020,19:39,87.92,87.92,87.86,87.86, 2520
01/08/2020,19:40,87.85,87.89,87.84,87.84, 3846
01/08/2020,19:41,87.87,87.91,87.86,87.89, 6032
01/08/2020,19:42,87.89,87.9,87.87,87.87, 2052
01/08/2020,19:43,87.88,87.89,87.85,87.86, 2508
01/08/2020,19:44,87.89,87.89,87.82,87.83, 3589
01/08/2020,19:45,87.81,87.82,87.79,87.79, 3046
01/08/2020,19:46,87.77,87.85,87.76,87.83, 4819
01/08/2020,19:47,87.84,87.89,87.84,87.86, 1549
01/08/2020,19:48,87.86,87.87,87.84,87.85, 2305
01/08/2020,19:49,87.85,87.87,87.85,87.85, 1998
01/08/2020,19:50,87.87,87.88,87.86,87.86, 2082
01/08/2020,19:51,87.89,87.96,87.86,87.96, 10827
01/08/2020,19:52,87.94,87.95,87.93,87.93, 600
01/08/2020,19:53,87.95,87.95,87.8,87.8, 4315
01/08/2020,19:54,87.77,87.77,87.65,87.65, 6897
01/08/2020,19:55,87.65,87.65,87.58,87.62, 3251
01/08/2020,19:56,87.62,87.66,87.62,87.63, 6990
01/08/2020,19:57,87.63,87.7,87.53,87.62, 26461
01/08/2020,19:58,87.64,87.65,87.55,87.55, 38288
01/08/2020,19:59,87.55,87.58,87.53,87.54, 26885
01/08/2020,20:00,87.54,87.55,87.47,87.49, 15301
01/08/2020,20:01,87.48,87.52,87.46,87.46, 12082
01/08/2020,20:02,87.45,87.48,87.34,87.34, 10005
01/08/2020,20:03,87.32,87.42,87.3,87.39, 5473
01/08/2020,20:04,87.41,87.46,87.35,87.45, 9960
01/08/2020,20:05,87.46,87.46,87.36,87.36, 2123
01/08/2020,20:06,87.35,87.35,87.22,87.23, 4950
01/08/2020,20:07,87.24,87.32,87.19,87.31, 13116
01/08/2020,20:08,87.31,87.32,87.26,87.27, 4788
01/08/2020,20:09,87.24,87.26,87.2,87.23, 8101
01/08/2020,20:10,87.25,87.25,87.2,87.24, 7603
01/08/2020,20:11,87.24,87.3,87.23,87.27, 6764
01/08/2020,20:12,87.23,87.27,87.22,87.27, 12005
01/08/2020,20:13,87.27,87.31,87.24,87.25, 39449
01/08/2020,20:14,87.25,87.28,87.24,87.25, 4582
01/08/2020,20:15,87.25,87.28,87.19,87.19, 25668
01/08/2020,20:16,87.22,87.22,87.14,87.17, 3472
01/08/2020,20:17,87.21,87.24,87.18,87.23, 6252
01/08/2020,20:18,87.22,87.22,87.16,87.18, 2368
01/08/2020,20:19,87.19,87.24,87.16,87.24, 6293
01/08/2020,20:20,87.25,87.25,87.1,87.19, 4184
01/08/2020,20:21,87.18,87.21,87.16,87.16, 1357
01/08/2020,20:22,87.15,87.2,87.11,87.17, 4324
01/08/2020,20:23,87.18,87.2,87.16,87.17, 2874
01/08/2020,20:24,87.16,87.28,87.16,87.22, 3704
01/08/2020,20:25,87.2,87.23,87.2,87.22, 900
01/08/2020,20:26,87.24,87.24,87.22,87.22, 900
01/08/2020,20:27,87.2,87.24,87.17,87.24, 2686
01/08/2020,20:28,87.22,87.22,87.16,87.18, 3954
01/08/2020,20:29,87.16,87.26,87.16,87.24, 10662
01/08/2020,20:30,87.28,87.42,87.28,87.38, 9206
01/08/2020,20:31,87.4,87.56,87.4,87.53, 7422
01/08/2020,20:32,87.54,87.64,87.54,87.63, 3993
01/08/2020,20:33,87.6,87.65,87.56,87.63, 3600
01/08/2020,20:34,87.6,87.71,87.6,87.71, 3900
01/08/2020,20:35,87.72,87.73,87.65,87.69, 1676
01/08/2020,20:36,87.69,87.74,87.68,87.73, 1603
01/08/2020,20:37,87.74,87.75,87.69,87.69, 3695
01/08/2020,20:38,87.68,87.68,87.58,87.58, 2102
01/08/2020,20:39,87.56,87.58,87.53,87.54, 1500
01/08/2020,20:40,87.56,87.6,87.53,87.6, 3620
01/08/2020,20:41,87.58,87.63,87.58,87.58, 1800
01/08/2020,20:42,87.6,87.64,87.58,87.61, 3261
01/08/2020,20:43,87.58,87.58,87.49,87.51, 4030
01/08/2020,20:44,87.49,87.51,87.47,87.49, 2063
01/08/2020,20:45,87.48,87.57,87.48,87.51, 6273
01/08/2020,20:46,87.46,87.5,87.43,87.49, 2070
01/08/2020,20:47,87.48,87.53,87.48,87.53, 2743
01/08/2020,20:48,87.54,87.61,87.53,87.59, 10425
01/08/2020,20:49,87.57,87.6,87.56,87.58, 900
01/08/2020,20:50,87.6,87.6,87.54,87.54, 2300
01/08/2020,20:51,87.53,87.59,87.53,87.58, 4321
01/08/2020,20:52,87.59,87.63,87.56,87.56, 6100
01/08/2020,20:53,87.56,87.56,87.48,87.49, 2283
01/08/2020,20:54,87.52,87.54,87.48,87.54, 7165
01/08/2020,20:55,87.48,87.51,87.47,87.5, 1300
01/08/2020,20:56,87.52,87.52,87.45,87.45, 2033
01/08/2020,20:57,87.44,87.46,87.34,87.35, 6080
01/08/2020,20:58,87.34,87.4,87.34,87.39, 2137
01/08/2020,20:59,87.39,87.46,87.39,87.4, 4642
01/08/2020,21:00,87.4,87.4,87.36,87.37, 2450
01/08/2020,21:01,87.35,87.39,87.33,87.39, 4972
01/08/2020,21:02,87.37,87.44,87.37,87.44, 3640
01/08/2020,21:03,87.44,87.55,87.43,87.55, 4525
01/08/2020,21:04,87.55,87.55,87.47,87.47, 5050
01/08/2020,21:05,87.49,87.56,87.49,87.55, 3280
01/08/2020,21:06,87.53,87.56,87.42,87.44, 3800
01/08/2020,21:07,87.44,87.53,87.44,87.5, 3175
01/08/2020,21:08,87.52,87.6,87.52,87.6, 2750
01/08/2020,21:09,87.58,87.59,87.56,87.57, 4548
01/08/2020,21:10,87.58,87.58,87.52,87.52, 2852
01/08/2020,21:11,87.53,87.54,87.5,87.51, 2326
01/08/2020,21:12,87.5,87.54,87.48,87.54, 4650
01/08/2020,21:13,87.53,87.59,87.53,87.59, 2936
01/08/2020,21:14,87.6,87.62,87.56,87.62, 4795
01/08/2020,21:15,87.6,87.6,87.58,87.59, 3217
01/08/2020,21:16,87.59,87.63,87.57,87.63, 4202
01/08/2020,21:17,87.67,87.7,87.6,87.62, 4850
01/08/2020,21:18,87.62,87.69,87.6,87.68, 2500
01/08/2020,21:19,87.69,87.74,87.67,87.67, 5285
01/08/2020,21:20,87.67,87.7,87.64,87.66, 5700
01/08/2020,21:21,87.65,87.67,87.64,87.67, 3200
01/08/2020,21:22,87.67,87.69,87.64,87.66, 5798
01/08/2020,21:23,87.65,87.7,87.64,87.7, 4008
01/08/2020,21:24,87.68,87.73,87.67,87.73, 1785
01/08/2020,21:25,87.72,87.73,87.69,87.69, 4538
01/08/2020,21:26,87.69,87.71,87.68,87.7, 1890
01/08/2020,21:27,87.7,87.7,87.66,87.66, 2715
01/08/2020,21:28,87.66,87.69,87.65,87.69, 4409
01/08/2020,21:29,87.7,87.71,87.69,87.7, 1912
01/08/2020,21:30,87.69,87.69,87.66,87.68, 3038
01/08/2020,21:31,87.68,87.69,87.64,87.65, 4951
01/08/2020,21:32,87.65,87.66,87.62,87.64, 4299
01/08/2020,21:33,87.63,87.66,87.63,87.63, 2700
01/08/2020,21:34,87.62,87.62,87.56,87.56, 3669
01/08/2020,21:35,87.56,87.56,87.49,87.49, 3328
01/08/2020,21:36,87.49,87.49,87.45,87.47, 7400
01/08/2020,21:37,87.45,87.48,87.42,87.47, 5839
01/08/2020,21:38,87.48,87.49,87.45,87.46, 4353
01/08/2020,21:39,87.45,87.5,87.45,87.47, 12120
01/08/2020,21:40,87.47,87.5,87.44,87.44, 3080
01/08/2020,21:41,87.45,87.46,87.41,87.43, 4071
01/08/2020,21:42,87.43,87.44,87.39,87.39, 4152
01/08/2020,21:43,87.4,87.44,87.39,87.44, 4461
01/08/2020,21:44,87.44,87.47,87.43,87.43, 4952
01/08/2020,21:45,87.42,87.42,87.33,87.33, 4375
01/08/2020,21:46,87.32,87.4,87.31,87.38, 13985
01/08/2020,21:47,87.36,87.43,87.35,87.35, 8055
01/08/2020,21:48,87.35,87.42,87.22,87.37, 12877
01/08/2020,21:49,87.36,87.44,87.3,87.42, 10457
01/08/2020,21:50,87.44,87.47,87.37,87.38, 23640
01/08/2020,21:51,87.37,87.55,87.35,87.52, 15953
01/08/2020,21:52,87.5,87.53,87.42,87.49, 54563
01/08/2020,21:53,87.49,87.57,87.46,87.46, 15092
01/08/2020,21:54,87.47,87.55,87.46,87.47, 11352
01/08/2020,21:55,87.47,87.52,87.46,87.52, 13094
01/08/2020,21:56,87.53,87.58,87.5,87.52, 19213
01/08/2020,21:57,87.52,87.54,87.42,87.42, 19676
01/08/2020,21:58,87.42,87.49,87.37,87.4, 26163
01/08/2020,21:59,87.4,87.42,87.38,87.42, 35584
01/08/2020,22:00,87.42,87.42,87.33,87.34, 35225
01/08/2020,22:00,87.34,87.39,87.32,87.37, 15937
01/08/2020,22:03,87.34,87.34,87.34,87.34, 640159
01/09/2020,15:31,86.55,86.96,86.45,86.53, 47397
01/09/2020,15:32,86.48,86.69,86.48,86.64, 1891
01/09/2020,15:33,86.64,86.97,86.59,86.85, 3273
01/09/2020,15:34,86.8,86.83,86.73,86.83, 2146
01/09/2020,15:35,86.74,86.96,86.74,86.83, 3042
01/09/2020,15:36,86.79,86.8,86.71,86.72, 2950
01/09/2020,15:37,86.78,86.85,86.71,86.71, 3547
01/09/2020,15:38,86.66,86.66,86.16,86.19, 6715
01/09/2020,15:39,86.14,86.2,86.06,86.08, 10772
01/09/2020,15:40,86.09,86.2,86.06,86.16, 25915
01/09/2020,15:41,86.13,86.17,86.08,86.13, 6688
01/09/2020,15:42,86.09,86.15,86.06,86.08, 12639
01/09/2020,15:43,86.12,86.13,85.9,85.96, 11474
01/09/2020,15:44,85.94,85.99,85.94,85.98, 1805
01/09/2020,15:45,85.99,86.02,85.95,85.99, 4760
01/09/2020,15:46,85.96,85.99,85.91,85.93, 4403
01/09/2020,15:47,85.96,86.06,85.91,86.06, 4029
01/09/2020,15:48,86.04,86.06,85.98,86.06, 1610
01/09/2020,15:49,86.03,86.04,85.92,86.01, 7895
01/09/2020,15:50,86.02,86.02,85.85,85.95, 18591
01/09/2020,15:51,85.98,86.01,85.92,85.99, 37999
01/09/2020,15:52,86.02,86.11,85.99,86.09, 10502
01/09/2020,15:53,86.11,86.19,86.08,86.13, 6263
01/09/2020,15:54,86.16,86.18,86.06,86.06, 7712
01/09/2020,15:55,86.05,86.05,85.9,85.91, 2765
01/09/2020,15:56,85.9,86.08,85.9,86, 2803
01/09/2020,15:57,85.96,86,85.84,85.9, 26623
01/09/2020,15:58,85.9,85.93,85.89,85.92, 5590
01/09/2020,15:59,85.89,86.03,85.89,86.03, 4200
01/09/2020,16:00,86,86.01,85.85,85.85, 4772
01/09/2020,16:01,85.9,85.91,85.58,85.61, 12993
01/09/2020,16:02,85.62,85.66,85.52,85.53, 14942
01/09/2020,16:03,85.55,85.61,85.46,85.5, 19481
01/09/2020,16:04,85.44,85.5,85.3,85.41, 14267
01/09/2020,16:05,85.38,85.38,85.28,85.28, 5474
01/09/2020,16:06,85.25,85.25,85.15,85.16, 6298
01/09/2020,16:07,85.19,85.19,84.85,84.88, 20014
01/09/2020,16:08,84.89,85.1,84.87,85.07, 9396
01/09/2020,16:09,85.05,85.15,85.01,85.06, 14736
01/09/2020,16:10,85.1,85.27,85.06,85.27, 16959
01/09/2020,16:11,85.25,85.28,85.22,85.26, 8055
01/09/2020,16:12,85.24,85.27,85.16,85.16, 6109
01/09/2020,16:13,85.16,85.17,85.13,85.15, 7660
01/09/2020,16:14,85.14,85.31,85.14,85.3, 8192
01/09/2020,16:15,85.3,85.31,85.23,85.27, 6475
01/09/2020,16:16,85.29,85.37,85.22,85.22, 17746
01/09/2020,16:17,85.18,85.18,85.11,85.11, 2862
01/09/2020,16:18,85.13,85.15,85.03,85.03, 5125
01/09/2020,16:19,85.01,85.1,85.01,85.04, 5495
01/09/2020,16:20,85.03,85.13,85,85.11, 5632
01/09/2020,16:21,85.1,85.1,85.03,85.1, 14817
01/09/2020,16:22,85.1,85.11,85.04,85.1, 6908
01/09/2020,16:23,85.1,85.19,85.07,85.07, 5849
01/09/2020,16:24,85.07,85.11,85.01,85.04, 1000
01/09/2020,16:25,85.01,85.08,84.97,85.03, 5266
01/09/2020,16:26,85.05,85.06,85,85.01, 2128
01/09/2020,16:27,84.97,85.06,84.97,85.06, 5083
01/09/2020,16:28,85.07,85.11,85.07,85.1, 6746
01/09/2020,16:29,85.06,85.29,85.06,85.19, 13606
01/09/2020,16:30,85.19,85.21,85.15,85.15, 13472
01/09/2020,16:31,85.15,85.17,85.08,85.08, 5039
01/09/2020,16:32,85.04,85.09,85.02,85.03, 3226
01/09/2020,16:33,85.03,85.1,85.02,85.04, 4000
01/09/2020,16:34,85.03,85.03,84.95,84.96, 8621
01/09/2020,16:35,84.95,84.96,84.81,84.84, 12101
01/09/2020,16:36,84.81,84.81,84.71,84.75, 5109
01/09/2020,16:37,84.75,84.89,84.74,84.89, 6870
01/09/2020,16:38,84.91,84.92,84.81,84.88, 12618
01/09/2020,16:39,84.87,84.91,84.79,84.85, 7712
01/09/2020,16:40,84.86,85.04,84.86,85.01, 13276
01/09/2020,16:41,85.02,85.08,84.96,84.98, 17898
01/09/2020,16:42,84.96,84.96,84.88,84.91, 8018
01/09/2020,16:43,84.92,84.99,84.9,84.96, 11805
01/09/2020,16:44,84.99,84.99,84.85,84.85, 3360
01/09/2020,16:45,84.87,84.99,84.87,84.98, 4959
01/09/2020,16:46,84.98,85.01,84.93,84.95, 14711
01/09/2020,16:47,84.97,85.16,84.95,85.12, 31943
01/09/2020,16:48,85.12,85.19,85.1,85.1, 16627
01/09/2020,16:49,85.11,85.27,85.11,85.27, 20295
01/09/2020,16:50,85.24,85.29,85.15,85.19, 25353
01/09/2020,16:51,85.22,85.24,85.13,85.16, 119833
01/09/2020,16:52,85.13,85.24,85.11,85.15, 17787
01/09/2020,16:53,85.21,85.24,85.05,85.09, 4820
01/09/2020,16:54,85.08,85.13,85.08,85.1, 5887
01/09/2020,16:55,85.11,85.22,85.11,85.22, 5891
01/09/2020,16:56,85.21,85.24,85.14,85.24, 13911
01/09/2020,16:57,85.25,85.29,85.21,85.24, 13409
01/09/2020,16:58,85.28,85.38,85.26,85.35, 12839
01/09/2020,16:59,85.39,85.4,85.31,85.31, 8204
01/09/2020,17:00,85.33,85.4,85.31,85.34, 19210
01/09/2020,17:01,85.35,85.35,85.22,85.28, 26352
01/09/2020,17:02,85.27,85.31,85.13,85.16, 17030
01/09/2020,17:03,85.17,85.21,85.12,85.12, 26468
01/09/2020,17:04,85.15,85.29,85.13,85.29, 20587
01/09/2020,17:05,85.27,85.29,85.19,85.22, 6285
01/09/2020,17:06,85.21,85.22,85.09,85.13, 4715
01/09/2020,17:07,85.12,85.14,85.05,85.07, 5922
01/09/2020,17:08,85.02,85.03,84.97,84.99, 103873
01/09/2020,17:09,84.99,85.02,84.84,84.86, 10866
01/09/2020,17:10,84.85,84.95,84.83,84.95, 12097
01/09/2020,17:11,84.95,84.95,84.85,84.9, 8458
01/09/2020,17:12,84.88,84.88,84.84,84.86, 1600
01/09/2020,17:13,84.82,84.9,84.82,84.85, 3500
01/09/2020,17:14,84.85,84.87,84.79,84.81, 11783
01/09/2020,17:15,84.82,84.95,84.82,84.93, 6762
01/09/2020,17:16,84.94,85,84.91,84.91, 12328
01/09/2020,17:17,84.87,84.9,84.81,84.81, 8219
01/09/2020,17:18,84.8,84.91,84.76,84.91, 23390
01/09/2020,17:19,84.91,85,84.91,84.97, 25262
01/09/2020,17:20,84.99,85.1,84.95,85.08, 68719
01/09/2020,17:21,85.08,85.09,85,85.06, 14624
01/09/2020,17:22,85.06,85.13,85.06,85.12, 4672
01/09/2020,17:23,85.12,85.12,85,85.03, 16410
01/09/2020,17:24,85.03,85.08,85,85, 7108
01/09/2020,17:25,85.01,85.05,84.92,85.03, 29081
01/09/2020,17:26,85.04,85.1,85.02,85.05, 11353
01/09/2020,17:27,85.04,85.2,85.03,85.2, 12752
01/09/2020,17:28,85.2,85.22,85.09,85.1, 8620
01/09/2020,17:29,85.08,85.25,85.08,85.19, 7892
01/09/2020,17:30,85.2,85.25,85.16,85.16, 19828
01/09/2020,17:31,85.18,85.19,85.07,85.12, 14693
01/09/2020,17:32,85.1,85.1,85.05,85.06, 4868
01/09/2020,17:33,85.04,85.24,85.04,85.24, 34398
01/09/2020,17:34,85.24,85.25,85.19,85.2, 1901
01/09/2020,17:35,85.2,85.22,85.12,85.15, 15682
01/09/2020,17:36,85.14,85.2,85.1,85.1, 14444
01/09/2020,17:37,85.11,85.16,85.09,85.09, 6979
01/09/2020,17:38,85.05,85.11,85,85.11, 21890
01/09/2020,17:39,85.07,85.22,85.06,85.17, 4574
01/09/2020,17:40,85.2,85.22,85.15,85.15, 8781
01/09/2020,17:41,85.16,85.21,85.15,85.21, 3905
01/09/2020,17:42,85.16,85.21,85.09,85.09, 8106
01/09/2020,17:43,85.09,85.15,85.08,85.08, 13683
01/09/2020,17:44,85.1,85.12,85.02,85.02, 58590
01/09/2020,17:45,85.01,85.12,85.01,85.12, 86292
01/09/2020,17:46,85.1,85.21,85.1,85.15, 17170
01/09/2020,17:47,85.13,85.18,85.12,85.18, 2846
01/09/2020,17:48,85.19,85.28,85.15,85.28, 38459
01/09/2020,17:49,85.27,85.35,85.26,85.32, 7386
01/09/2020,17:50,85.33,85.34,85.25,85.34, 10527
01/09/2020,17:51,85.32,85.35,85.27,85.32, 5182
01/09/2020,17:52,85.3,85.37,85.3,85.36, 7482
01/09/2020,17:53,85.34,85.39,85.34,85.39, 2480
01/09/2020,17:54,85.39,85.47,85.36,85.36, 4985
01/09/2020,17:55,85.35,85.37,85.32,85.32, 2508
01/09/2020,17:56,85.33,85.38,85.2,85.25, 44478
01/09/2020,17:57,85.24,85.35,85.23,85.34, 56478
01/09/2020,17:58,85.31,85.41,85.31,85.39, 11518
01/09/2020,17:59,85.4,85.46,85.4,85.43, 6729
01/09/2020,18:00,85.45,85.46,85.41,85.41, 7259
01/09/2020,18:01,85.42,85.45,85.4,85.43, 4660
01/09/2020,18:02,85.45,85.57,85.43,85.52, 7703
01/09/2020,18:03,85.52,85.57,85.51,85.53, 10409
01/09/2020,18:04,85.57,85.62,85.55,85.62, 11467
01/09/2020,18:05,85.62,85.7,85.62,85.62, 11065
01/09/2020,18:06,85.62,85.67,85.62,85.66, 5826
01/09/2020,18:07,85.66,85.75,85.65,85.74, 12479
01/09/2020,18:08,85.74,85.8,85.74,85.78, 16938
01/09/2020,18:09,85.8,85.89,85.8,85.88, 10651
01/09/2020,18:10,85.88,85.97,85.88,85.97, 11844
01/09/2020,18:11,85.97,85.99,85.93,85.94, 11109
01/09/2020,18:12,85.97,85.97,85.9,85.91, 5861
01/09/2020,18:13,85.91,85.92,85.85,85.92, 5615
01/09/2020,18:14,85.9,85.93,85.87,85.88, 5013
01/09/2020,18:15,85.87,85.94,85.87,85.9, 4924
01/09/2020,18:16,85.9,85.98,85.9,85.97, 11971
01/09/2020,18:17,85.94,85.99,85.92,85.98, 8389
01/09/2020,18:18,86,86.03,85.91,85.91, 12022
01/09/2020,18:19,85.91,85.91,85.79,85.81, 24119
01/09/2020,18:20,85.79,85.83,85.74,85.79, 8410
01/09/2020,18:21,85.8,85.82,85.78,85.81, 8062
01/09/2020,18:22,85.82,85.83,85.75,85.78, 9772
01/09/2020,18:23,85.78,85.78,85.67,85.67, 13476
01/09/2020,18:24,85.7,85.73,85.64,85.71, 11284
01/09/2020,18:25,85.71,85.78,85.69,85.74, 6974
01/09/2020,18:26,85.75,85.77,85.73,85.76, 14526
01/09/2020,18:27,85.77,85.77,85.69,85.72, 18973
01/09/2020,18:28,85.73,85.81,85.71,85.79, 14698
01/09/2020,18:29,85.79,85.8,85.7,85.7, 26902
01/09/2020,18:30,85.69,85.72,85.68,85.7, 4734
01/09/2020,18:31,85.72,85.78,85.72,85.78, 8576
01/09/2020,18:32,85.81,85.81,85.67,85.71, 24767
01/09/2020,18:33,85.71,85.74,85.68,85.68, 16060
01/09/2020,18:34,85.68,85.7,85.66,85.7, 3917
01/09/2020,18:35,85.69,85.72,85.68,85.68, 13032
01/09/2020,18:36,85.69,85.7,85.68,85.69, 6820
01/09/2020,18:37,85.7,85.8,85.68,85.8, 40853
01/09/2020,18:38,85.81,85.81,85.74,85.79, 18823
01/09/2020,18:39,85.81,85.82,85.76,85.77, 16909
01/09/2020,18:40,85.77,85.77,85.68,85.69, 16029
01/09/2020,18:41,85.69,85.76,85.69,85.73, 5443
01/09/2020,18:42,85.7,85.77,85.7,85.76, 7853
01/09/2020,18:43,85.76,85.85,85.75,85.81, 16656
01/09/2020,18:44,85.8,85.87,85.8,85.85, 6486
01/09/2020,18:45,85.87,85.89,85.84,85.89, 7345
01/09/2020,18:46,85.9,85.92,85.87,85.9, 5642
01/09/2020,18:47,85.91,85.97,85.87,85.97, 27174
01/09/2020,18:48,85.98,86.04,85.97,85.98, 22130
01/09/2020,18:49,85.99,86,85.96,85.99, 30476
01/09/2020,18:50,86,86.03,85.99,86.01, 4650
01/09/2020,18:51,86.02,86.09,86.01,86.07, 6263
01/09/2020,18:52,86.09,86.12,86.08,86.09, 6640
01/09/2020,18:53,86.09,86.14,86.09,86.14, 3341
01/09/2020,18:54,86.12,86.18,86.12,86.17, 6788
01/09/2020,18:55,86.16,86.2,86.15,86.18, 6104
01/09/2020,18:56,86.18,86.22,86.17,86.2, 6435
01/09/2020,18:57,86.19,86.19,86.08,86.1, 12750
01/09/2020,18:58,86.08,86.08,85.99,86.02, 16438
01/09/2020,18:59,86.02,86.11,86.02,86.1, 5735
01/09/2020,19:00,86.1,86.1,86.01,86.03, 5527
01/09/2020,19:01,86.04,86.11,86,86.1, 15569
01/09/2020,19:02,86.1,86.1,86.01,86.01, 6058
01/09/2020,19:03,86.02,86.1,86,86.1, 3405
01/09/2020,19:04,86.09,86.11,86.07,86.1, 11490
01/09/2020,19:05,86.13,86.15,86.12,86.14, 12072
01/09/2020,19:06,86.17,86.17,86.13,86.14, 21677
01/09/2020,19:07,86.13,86.13,86.06,86.07, 11076
01/09/2020,19:08,86.07,86.11,86.07,86.08, 5834
01/09/2020,19:09,86.08,86.1,86.01,86.02, 4005
01/09/2020,19:10,86.02,86.06,86.02,86.04, 3121
01/09/2020,19:11,86.05,86.18,86.05,86.18, 4588
01/09/2020,19:12,86.17,86.29,86.17,86.24, 8059
01/09/2020,19:13,86.25,86.25,86.11,86.13, 8896
01/09/2020,19:14,86.12,86.19,86.11,86.18, 12841
01/09/2020,19:15,86.19,86.19,86.13,86.14, 6152
01/09/2020,19:16,86.13,86.13,86.07,86.08, 4745
01/09/2020,19:17,86.08,86.12,86.08,86.09, 8434
01/09/2020,19:18,86.1,86.11,86.05,86.11, 9759
01/09/2020,19:19,86.09,86.09,86.05,86.05, 5309
01/09/2020,19:20,86.05,86.08,86,86.08, 8489
01/09/2020,19:21,86.05,86.16,86.05,86.11, 12076
01/09/2020,19:22,86.1,86.18,86.07,86.18, 5933
01/09/2020,19:23,86.18,86.23,86.16,86.23, 5387
01/09/2020,19:24,86.23,86.31,86.23,86.29, 4099
01/09/2020,19:25,86.29,86.35,86.29,86.35, 4274
01/09/2020,19:26,86.33,86.37,86.29,86.29, 7731
01/09/2020,19:27,86.31,86.4,86.31,86.38, 3185
01/09/2020,19:28,86.38,86.43,86.38,86.43, 5115
01/09/2020,19:29,86.44,86.46,86.41,86.45, 4837
01/09/2020,19:30,86.45,86.48,86.43,86.46, 30465
01/09/2020,19:31,86.47,86.47,86.3,86.3, 4254
01/09/2020,19:32,86.3,86.34,86.28,86.28, 5765
01/09/2020,19:33,86.27,86.31,86.27,86.29, 3300
01/09/2020,19:34,86.27,86.3,86.23,86.3, 3255
01/09/2020,19:35,86.3,86.37,86.3,86.37, 1759
01/09/2020,19:36,86.38,86.45,86.37,86.45, 6101
01/09/2020,19:37,86.44,86.45,86.42,86.45, 2913
01/09/2020,19:38,86.44,86.53,86.44,86.52, 3297
01/09/2020,19:39,86.54,86.58,86.54,86.57, 4334
01/09/2020,19:40,86.56,86.56,86.53,86.55, 4399
01/09/2020,19:41,86.53,86.53,86.46,86.5, 7084
01/09/2020,19:42,86.49,86.5,86.45,86.49, 5000
01/09/2020,19:43,86.5,86.53,86.5,86.52, 2517
01/09/2020,19:44,86.52,86.53,86.48,86.53, 4169
01/09/2020,19:45,86.51,86.54,86.51,86.54, 1000
01/09/2020,19:46,86.55,86.55,86.53,86.54, 5268
01/09/2020,19:47,86.55,86.57,86.53,86.57, 3706
01/09/2020,19:48,86.56,86.58,86.56,86.58, 2600
01/09/2020,19:49,86.59,86.61,86.57,86.61, 1800
01/09/2020,19:50,86.61,86.61,86.54,86.55, 4819
01/09/2020,19:51,86.55,86.6,86.55,86.6, 2958
01/09/2020,19:52,86.62,86.72,86.62,86.68, 10983
01/09/2020,19:53,86.69,86.76,86.68,86.72, 4342
01/09/2020,19:54,86.72,86.72,86.63,86.65, 9864
01/09/2020,19:55,86.66,86.72,86.66,86.72, 3512
01/09/2020,19:56,86.73,86.78,86.72,86.78, 4243
01/09/2020,19:57,86.77,86.8,86.75,86.76, 5355
01/09/2020,19:58,86.75,86.82,86.74,86.82, 4654
01/09/2020,19:59,86.81,86.88,86.8,86.8, 5268
01/09/2020,20:00,86.8,86.83,86.79,86.81, 4425
01/09/2020,20:01,86.81,86.81,86.7,86.76, 4689
01/09/2020,20:02,86.76,86.79,86.73,86.73, 7096
01/09/2020,20:03,86.74,86.82,86.74,86.82, 6006
01/09/2020,20:04,86.8,86.84,86.78,86.82, 8380
01/09/2020,20:05,86.82,86.88,86.82,86.86, 6656
01/09/2020,20:06,86.87,86.87,86.79,86.87, 19102
01/09/2020,20:07,86.87,86.88,86.77,86.8, 14170
01/09/2020,20:08,86.8,86.85,86.78,86.79, 14041
01/09/2020,20:09,86.82,86.92,86.82,86.86, 11758
01/09/2020,20:10,86.86,86.97,86.84,86.9, 19059
01/09/2020,20:11,86.9,87,86.9,86.92, 10332
01/09/2020,20:12,86.91,86.95,86.9,86.94, 6700
01/09/2020,20:13,86.96,86.97,86.89,86.94, 16433
01/09/2020,20:14,86.94,87.02,86.93,87.02, 7704
01/09/2020,20:15,86.98,87.05,86.98,87.01, 4017
01/09/2020,20:16,87.01,87.1,86.99,87.1, 22192
01/09/2020,20:17,87.09,87.13,87.04,87.07, 10307
01/09/2020,20:18,87.08,87.15,87.05,87.15, 4697
01/09/2020,20:19,87.11,87.11,87.06,87.06, 6725
01/09/2020,20:20,87.08,87.16,87.07,87.16, 7990
01/09/2020,20:21,87.15,87.24,87.14,87.21, 3643
01/09/2020,20:22,87.19,87.25,87.17,87.21, 6844
01/09/2020,20:23,87.22,87.25,87.19,87.2, 8962
01/09/2020,20:24,87.24,87.29,87.21,87.26, 8729
01/09/2020,20:25,87.28,87.34,87.27,87.27, 5079
01/09/2020,20:26,87.27,87.43,87.27,87.42, 8427
01/09/2020,20:27,87.42,87.48,87.4,87.48, 3925
01/09/2020,20:28,87.49,87.52,87.43,87.45, 20962
01/09/2020,20:29,87.45,87.46,87.37,87.37, 6384
01/09/2020,20:30,87.37,87.46,87.37,87.44, 14740
01/09/2020,20:31,87.43,87.48,87.4,87.47, 6384
01/09/2020,20:32,87.45,87.54,87.45,87.51, 6908
01/09/2020,20:33,87.5,87.55,87.48,87.53, 4550
01/09/2020,20:34,87.54,87.6,87.5,87.58, 7473
01/09/2020,20:35,87.6,87.64,87.56,87.64, 6521
01/09/2020,20:36,87.64,87.69,87.62,87.62, 8275
01/09/2020,20:37,87.63,87.67,87.62,87.63, 10432
01/09/2020,20:38,87.63,87.75,87.63,87.75, 9174
01/09/2020,20:39,87.75,87.77,87.73,87.77, 6827
01/09/2020,20:40,87.76,87.89,87.76,87.87, 9837
01/09/2020,20:41,87.85,87.87,87.77,87.77, 9380
01/09/2020,20:42,87.77,87.89,87.76,87.89, 9231
01/09/2020,20:43,87.9,87.95,87.87,87.93, 9311
01/09/2020,20:44,87.91,88.02,87.91,88.01, 7729
01/09/2020,20:45,88.02,88.05,87.96,88.05, 10010
01/09/2020,20:46,88.05,88.09,87.93,87.96, 16412
01/09/2020,20:47,87.94,87.96,87.8,87.85, 17765
01/09/2020,20:48,87.84,87.87,87.77,87.81, 20433
01/09/2020,20:49,87.83,87.83,87.68,87.69, 37199
01/09/2020,20:50,87.69,87.73,87.67,87.73, 19021
01/09/2020,20:51,87.74,87.88,87.73,87.86, 13893
01/09/2020,20:52,87.85,88.02,87.84,87.95, 19124
01/09/2020,20:53,87.92,88.03,87.92,88, 11331
01/09/2020,20:54,88.02,88.1,88.02,88.09, 9200
01/09/2020,20:55,88.14,88.14,88.07,88.11, 11626
01/09/2020,20:56,88.08,88.08,87.96,87.97, 8383
01/09/2020,20:57,87.98,88.02,87.93,87.93, 11616
01/09/2020,20:58,87.93,88.05,87.93,88.05, 11866
01/09/2020,20:59,88.05,88.11,88,88.07, 10623
01/09/2020,21:00,88.08,88.13,88.04,88.05, 12727
01/09/2020,21:01,88.06,88.14,88.06,88.12, 10400
01/09/2020,21:02,88.14,88.2,88.1,88.16, 17971
01/09/2020,21:03,88.19,88.2,88.07,88.17, 12593
01/09/2020,21:04,88.16,88.3,88.16,88.24, 23300
01/09/2020,21:05,88.24,88.3,88.2,88.27, 15343
01/09/2020,21:06,88.26,88.36,88.25,88.27, 14379
01/09/2020,21:07,88.24,88.25,88.16,88.23, 12765
01/09/2020,21:08,88.22,88.32,88.2,88.32, 15263
01/09/2020,21:09,88.31,88.37,88.26,88.31, 9550
01/09/2020,21:10,88.32,88.33,88.21,88.21, 10942
01/09/2020,21:11,88.21,88.27,88.17,88.17, 18502
01/09/2020,21:12,88.17,88.25,88.11,88.23, 18880
01/09/2020,21:13,88.23,88.33,88.23,88.25, 9412
01/09/2020,21:14,88.28,88.34,88.25,88.34, 7230
01/09/2020,21:15,88.34,88.34,88.27,88.28, 8932
01/09/2020,21:16,88.27,88.29,88.22,88.23, 14216
01/09/2020,21:17,88.24,88.28,88.24,88.27, 6015
01/09/2020,21:18,88.28,88.28,88.19,88.19, 10693
01/09/2020,21:19,88.2,88.23,88.2,88.22, 34738
01/09/2020,21:20,88.22,88.26,88.22,88.26, 7237
01/09/2020,21:21,88.26,88.27,88.2,88.23, 14315
01/09/2020,21:22,88.23,88.27,88.22,88.27, 13325
01/09/2020,21:23,88.27,88.29,88.22,88.24, 10295
01/09/2020,21:24,88.26,88.26,88.23,88.24, 19310
01/09/2020,21:25,88.25,88.25,88.13,88.21, 30417
01/09/2020,21:26,88.19,88.21,88.13,88.13, 15407
01/09/2020,21:27,88.11,88.15,88.1,88.15, 30400
01/09/2020,21:28,88.14,88.15,88.1,88.14, 24825
01/09/2020,21:29,88.14,88.21,88.14,88.19, 15896
01/09/2020,21:30,88.2,88.21,88.11,88.14, 15692
01/09/2020,21:31,88.14,88.21,88.13,88.2, 20229
01/09/2020,21:32,88.18,88.21,88.13,88.2, 13806
01/09/2020,21:33,88.19,88.2,88.15,88.2, 12479
01/09/2020,21:34,88.19,88.22,88.16,88.21, 37562
01/09/2020,21:35,88.19,88.3,88.18,88.27, 19432
01/09/2020,21:36,88.26,88.29,88.23,88.24, 10263
01/09/2020,21:37,88.24,88.25,88.16,88.17, 20831
01/09/2020,21:38,88.16,88.21,88.14,88.17, 19020
01/09/2020,21:39,88.17,88.2,88.14,88.16, 19936
01/09/2020,21:40,88.18,88.19,88.14,88.17, 12525
01/09/2020,21:41,88.18,88.21,88.16,88.2, 16167
01/09/2020,21:42,88.2,88.22,88.18,88.2, 14894
01/09/2020,21:43,88.19,88.27,88.18,88.21, 20131
01/09/2020,21:44,88.21,88.23,88.18,88.18, 9242
01/09/2020,21:45,88.17,88.22,88.17,88.22, 15274
01/09/2020,21:46,88.22,88.24,88.2,88.21, 18269
01/09/2020,21:47,88.21,88.27,88.21,88.27, 30163
01/09/2020,21:48,88.27,88.28,88.22,88.25, 31781
01/09/2020,21:49,88.26,88.28,88.24,88.26, 63515
01/09/2020,21:50,88.26,88.27,88.18,88.18, 16333
01/09/2020,21:51,88.19,88.29,88.14,88.29, 27193
01/09/2020,21:52,88.3,88.3,88.18,88.19, 19610
01/09/2020,21:53,88.18,88.19,88.1,88.1, 29787
01/09/2020,21:54,88.09,88.2,88.09,88.18, 29082
01/09/2020,21:55,88.17,88.2,88.12,88.13, 26575
01/09/2020,21:56,88.13,88.13,88.09,88.09, 24602
01/09/2020,21:57,88.1,88.12,88.03,88.11, 47783
01/09/2020,21:58,88.1,88.12,88.06,88.09, 41705
01/09/2020,21:59,88.1,88.16,88.09,88.15, 39852
01/09/2020,22:00,88.14,88.29,88.13,88.29, 111004
01/09/2020,22:00,88.29,88.33,88.22,88.23, 46974
01/09/2020,22:01,88.25,88.25,88.25,88.25, 518447
01/10/2020,15:31,87.55,87.55,87.2,87.54, 49690
01/10/2020,15:32,87.35,87.49,87.35,87.49, 600
01/10/2020,15:33,87.29,87.4,87.28,87.32, 2375
01/10/2020,15:33,87.33,87.38,87.21,87.34, 1700
01/10/2020,15:34,87.34,87.43,87.31,87.43, 1800
01/10/2020,15:36,87.43,87.61,87.43,87.48, 2184
01/10/2020,15:36,87.56,87.61,87.42,87.42, 1300
01/10/2020,15:38,87.45,87.48,87.4,87.4, 1711
01/10/2020,15:39,87.49,87.51,87.4,87.51, 4491
01/10/2020,15:39,87.5,87.5,87.36,87.36, 1830
01/10/2020,15:41,87.36,87.38,87.02,87.03, 5521
01/10/2020,15:41,87,87.07,86.9,87.04, 2200
01/10/2020,15:43,86.97,87.01,86.91,86.97, 2330
01/10/2020,15:44,86.97,86.97,86.88,86.9, 2095
01/10/2020,15:45,86.87,86.96,86.85,86.96, 6900
01/10/2020,15:46,86.9,86.94,86.73,86.74, 4200
01/10/2020,15:47,86.79,86.83,86.75,86.82, 9845
01/10/2020,15:48,86.79,86.88,86.78,86.88, 2218
01/10/2020,15:49,86.84,86.85,86.62,86.62, 1300
01/10/2020,15:50,86.56,86.71,86.55,86.7, 2250
01/10/2020,15:51,86.72,86.88,86.69,86.87, 4135
01/10/2020,15:52,86.88,86.95,86.86,86.95, 1950
01/10/2020,15:53,86.94,87.03,86.9,86.98, 1912
01/10/2020,15:54,87.05,87.14,87.01,87.14, 3329
01/10/2020,15:55,87.13,87.13,86.91,86.91, 2344
01/10/2020,15:56,86.85,86.85,86.71,86.78, 2618
01/10/2020,15:56,86.78,86.81,86.73,86.76, 1327
01/10/2020,15:58,86.71,86.83,86.64,86.77, 5947
01/10/2020,15:59,86.82,86.83,86.8,86.8, 700
01/10/2020,16:00,86.81,86.89,86.77,86.89, 1350
01/10/2020,16:01,86.84,86.84,86.61,86.65, 5092
01/10/2020,16:02,86.6,86.6,86.43,86.47, 7834
01/10/2020,16:03,86.42,86.44,86.34,86.41, 7712
01/10/2020,16:04,86.37,86.47,86.36,86.41, 4800
01/10/2020,16:05,86.39,86.53,86.38,86.48, 3293
01/10/2020,16:06,86.51,86.55,86.49,86.55, 2303
01/10/2020,16:07,86.58,86.62,86.55,86.55, 1550
01/10/2020,16:08,86.62,86.68,86.59,86.59, 2381
01/10/2020,16:09,86.6,86.69,86.53,86.69, 6846
01/10/2020,16:10,86.69,86.69,86.61,86.62, 11599
01/10/2020,16:11,86.58,86.61,86.5,86.61, 5397
01/10/2020,16:12,86.63,86.63,86.54,86.6, 11532
01/10/2020,16:13,86.58,86.59,86.46,86.46, 11059
01/10/2020,16:14,86.5,86.53,86.43,86.43, 4300
01/10/2020,16:15,86.41,86.45,86.36,86.45, 5067
01/10/2020,16:16,86.43,86.44,86.34,86.44, 8387
01/10/2020,16:17,86.47,86.55,86.47,86.53, 4848
01/10/2020,16:18,86.53,86.6,86.51,86.58, 9398
01/10/2020,16:19,86.6,86.72,86.6,86.68, 9500
01/10/2020,16:20,86.73,86.82,86.66,86.82, 4661
01/10/2020,16:21,86.81,86.96,86.81,86.91, 5601
01/10/2020,16:22,86.93,86.94,86.9,86.92, 3711
01/10/2020,16:23,86.94,86.96,86.91,86.92, 3311
01/10/2020,16:24,86.96,87,86.9,86.9, 2550
01/10/2020,16:25,86.91,86.91,86.83,86.85, 3700
01/10/2020,16:26,86.78,86.86,86.78,86.86, 5344
01/10/2020,16:27,86.84,86.88,86.81,86.81, 2150
01/10/2020,16:28,86.84,86.92,86.81,86.87, 11632
01/10/2020,16:29,86.87,86.97,86.85,86.97, 16704
01/10/2020,16:30,86.9,87.02,86.9,87.02, 4313
01/10/2020,16:31,87.03,87.21,87.03,87.1, 5455
01/10/2020,16:32,87.13,87.2,87.11,87.19, 1300
01/10/2020,16:33,87.16,87.3,87.16,87.3, 1199
01/10/2020,16:34,87.3,87.3,87.26,87.28, 3339
01/10/2020,16:35,87.28,87.37,87.25,87.25, 3082
01/10/2020,16:36,87.25,87.31,87.25,87.26, 2213
01/10/2020,16:37,87.19,87.23,87.16,87.2, 2991
01/10/2020,16:38,87.17,87.18,87.1,87.1, 1400
01/10/2020,16:39,87.13,87.25,87.13,87.24, 2544
01/10/2020,16:40,87.23,87.33,87.23,87.3, 5806
01/10/2020,16:41,87.32,87.38,87.32,87.36, 1752
01/10/2020,16:42,87.33,87.43,87.33,87.38, 2500
01/10/2020,16:43,87.33,87.37,87.31,87.34, 1500
01/10/2020,16:44,87.32,87.38,87.3,87.38, 1901
01/10/2020,16:45,87.34,87.39,87.33,87.33, 2000
01/10/2020,16:46,87.33,87.35,87.25,87.27, 32192
01/10/2020,16:47,87.23,87.25,87.18,87.18, 4932
01/10/2020,16:48,87.18,87.19,87.01,87.01, 3891
01/10/2020,16:49,87.06,87.12,87.06,87.12, 2493
01/10/2020,16:50,87.13,87.2,87.13,87.17, 3270
01/10/2020,16:51,87.16,87.16,87.02,87.02, 3600
01/10/2020,16:52,87.07,87.08,87.02,87.08, 3050
01/10/2020,16:53,87.06,87.15,87.06,87.15, 1350
01/10/2020,16:54,87.13,87.27,87.13,87.27, 3452
01/10/2020,16:55,87.24,87.36,87.24,87.3, 7351
01/10/2020,16:56,87.3,87.31,87.17,87.26, 2000
01/10/2020,16:57,87.3,87.3,87.25,87.3, 3143
01/10/2020,16:58,87.3,87.36,87.23,87.23, 4797
01/10/2020,16:59,87.22,87.22,87.17,87.21, 6487
01/10/2020,17:00,87.2,87.21,87.09,87.1, 4329
01/10/2020,17:01,87.1,87.11,87,87, 3400
01/10/2020,17:02,86.97,87.03,86.92,87.03, 6477
01/10/2020,17:03,87.05,87.15,87,87, 5724
01/10/2020,17:04,87,87.04,86.94,87.01, 3475
01/10/2020,17:05,86.99,87.04,86.89,87.04, 29297
01/10/2020,17:06,87.02,87.09,87.02,87.09, 2081
01/10/2020,17:07,87.08,87.15,87.08,87.13, 3835
01/10/2020,17:08,87.14,87.15,87.05,87.06, 2620
01/10/2020,17:09,87,87.07,87,87.03, 2480
01/10/2020,17:10,87.06,87.2,87.06,87.16, 3234
01/10/2020,17:11,87.17,87.21,87.16,87.17, 2550
01/10/2020,17:12,87.19,87.22,87.13,87.13, 1809
01/10/2020,17:13,87.13,87.16,87.05,87.05, 2831
01/10/2020,17:14,87.04,87.04,86.97,87.04, 7423
01/10/2020,17:15,87.04,87.11,87.04,87.09, 2699
01/10/2020,17:16,87.07,87.09,87.06,87.06, 1833
01/10/2020,17:17,87.08,87.14,87.07,87.11, 6909
01/10/2020,17:18,87.11,87.14,87.09,87.12, 4973
01/10/2020,17:19,87.13,87.13,87.03,87.03, 4663
01/10/2020,17:20,87.02,87.07,86.92,87.05, 5315
01/10/2020,17:21,87.07,87.11,87.04,87.04, 4624
01/10/2020,17:22,87.03,87.07,87,87.05, 5015
01/10/2020,17:23,87.04,87.07,86.98,87.04, 7794
01/10/2020,17:24,87.07,87.14,87.03,87.1, 2145
01/10/2020,17:25,87.1,87.12,87.02,87.07, 3753
01/10/2020,17:26,87.05,87.18,87.05,87.16, 3315
01/10/2020,17:27,87.16,87.16,87.04,87.04, 3045
01/10/2020,17:28,87.07,87.11,87,87, 13187
01/10/2020,17:29,87,87.09,86.99,87.09, 10025
01/10/2020,17:30,87.11,87.18,87.11,87.16, 2006
01/10/2020,17:31,87.17,87.17,87.05,87.08, 5078
01/10/2020,17:32,87.08,87.08,87.01,87.02, 1263
01/10/2020,17:33,87.07,87.08,87.02,87.06, 1500
01/10/2020,17:34,87.05,87.11,87.01,87.09, 3140
01/10/2020,17:35,87.12,87.12,87.08,87.11, 1735
01/10/2020,17:36,87.11,87.13,87.09,87.1, 8117
01/10/2020,17:37,87.11,87.21,87.09,87.2, 4408
01/10/2020,17:38,87.19,87.29,87.19,87.25, 3868
01/10/2020,17:39,87.26,87.32,87.24,87.29, 3593
01/10/2020,17:40,87.34,87.36,87.32,87.32, 3858
01/10/2020,17:41,87.32,87.34,87.26,87.27, 1980
01/10/2020,17:42,87.2,87.28,87.2,87.28, 3650
01/10/2020,17:43,87.26,87.26,87.18,87.18, 2467
01/10/2020,17:44,87.18,87.19,87.14,87.14, 1136
01/10/2020,17:45,87.19,87.19,87.11,87.13, 1800
01/10/2020,17:46,87.11,87.13,87.06,87.08, 4800
01/10/2020,17:47,87.05,87.15,87.04,87.1, 6420
01/10/2020,17:48,87.08,87.11,87,87, 4160
01/10/2020,17:49,87.03,87.07,86.97,86.97, 11002
01/10/2020,17:50,86.94,86.96,86.87,86.92, 3471
01/10/2020,17:51,86.91,86.97,86.9,86.95, 4994
01/10/2020,17:52,86.92,86.95,86.88,86.95, 9937
01/10/2020,17:53,86.95,86.95,86.87,86.87, 2705
01/10/2020,17:54,86.85,86.89,86.83,86.88, 3113
01/10/2020,17:55,86.89,86.9,86.83,86.83, 1990
01/10/2020,17:56,86.83,86.83,86.78,86.82, 1738
01/10/2020,17:57,86.84,86.9,86.84,86.86, 1600
01/10/2020,17:58,86.87,86.87,86.78,86.78, 2189
01/10/2020,17:59,86.73,86.79,86.73,86.78, 1913
01/10/2020,18:00,86.73,86.81,86.73,86.8, 2714
01/10/2020,18:01,86.81,86.81,86.7,86.7, 1835
01/10/2020,18:02,86.69,86.72,86.68,86.68, 2484
01/10/2020,18:03,86.66,86.66,86.6,86.63, 1700
01/10/2020,18:04,86.6,86.6,86.55,86.55, 1684
01/10/2020,18:05,86.55,86.61,86.52,86.59, 3200
01/10/2020,18:06,86.6,86.66,86.58,86.66, 2200
01/10/2020,18:07,86.63,86.65,86.62,86.63, 1305
01/10/2020,18:08,86.6,86.6,86.59,86.59, 300
01/10/2020,18:09,86.62,86.65,86.59,86.63, 2904
01/10/2020,18:10,86.63,86.65,86.61,86.64, 1800
01/10/2020,18:11,86.62,86.64,86.58,86.58, 1600
01/10/2020,18:12,86.57,86.61,86.56,86.6, 2367
01/10/2020,18:13,86.57,86.6,86.55,86.55, 1963
01/10/2020,18:14,86.53,86.57,86.47,86.47, 8083
01/10/2020,18:15,86.47,86.58,86.47,86.52, 6786
01/10/2020,18:16,86.54,86.6,86.53,86.53, 3181
01/10/2020,18:17,86.52,86.57,86.52,86.54, 2059
01/10/2020,18:18,86.57,86.57,86.52,86.56, 703
01/10/2020,18:19,86.54,86.6,86.54,86.6, 4125
01/10/2020,18:20,86.6,86.65,86.58,86.65, 1350
01/10/2020,18:21,86.65,86.66,86.6,86.6, 1200
01/10/2020,18:22,86.65,86.69,86.61,86.68, 1100
01/10/2020,18:23,86.69,86.69,86.63,86.64, 2601
01/10/2020,18:24,86.66,86.69,86.66,86.69, 1000
01/10/2020,18:25,86.69,86.72,86.66,86.66, 2685
01/10/2020,18:26,86.72,86.72,86.69,86.69, 907
01/10/2020,18:27,86.75,86.77,86.69,86.73, 2461
01/10/2020,18:28,86.69,86.75,86.69,86.7, 38078
01/10/2020,18:29,86.73,86.79,86.72,86.74, 1401
01/10/2020,18:30,86.77,86.81,86.76,86.76, 3035
01/10/2020,18:31,86.75,86.83,86.75,86.8, 2750
01/10/2020,18:32,86.78,86.81,86.77,86.77, 904
01/10/2020,18:33,86.8,86.82,86.78,86.78, 2900
01/10/2020,18:34,86.78,86.81,86.77,86.81, 1501
01/10/2020,18:35,86.82,86.86,86.82,86.84, 1665
01/10/2020,18:36,86.86,86.9,86.86,86.87, 1507
01/10/2020,18:37,86.88,86.88,86.87,86.87, 1100
01/10/2020,18:38,86.82,86.83,86.79,86.82, 2400
01/10/2020,18:39,86.83,86.83,86.82,86.82, 491
01/10/2020,18:40,86.82,86.85,86.8,86.81, 3908
01/10/2020,18:41,86.8,86.82,86.76,86.78, 1206
01/10/2020,18:42,86.76,86.76,86.68,86.68, 1527
01/10/2020,18:43,86.66,86.66,86.6,86.61, 3897
01/10/2020,18:44,86.63,86.63,86.6,86.6, 815
01/10/2020,18:45,86.58,86.58,86.5,86.5, 2944
01/10/2020,18:46,86.5,86.51,86.47,86.49, 4275
01/10/2020,18:47,86.48,86.53,86.48,86.5, 4988
01/10/2020,18:48,86.5,86.54,86.47,86.49, 3750
01/10/2020,18:49,86.48,86.49,86.45,86.47, 2859
01/10/2020,18:50,86.47,86.49,86.45,86.45, 3890
01/10/2020,18:51,86.44,86.44,86.39,86.41, 1315
01/10/2020,18:52,86.39,86.48,86.39,86.44, 5138
01/10/2020,18:53,86.43,86.5,86.41,86.5, 3901
01/10/2020,18:54,86.45,86.46,86.42,86.46, 2037
01/10/2020,18:55,86.42,86.44,86.42,86.42, 1385
01/10/2020,18:56,86.43,86.45,86.4,86.43, 7032
01/10/2020,18:57,86.41,86.43,86.4,86.4, 700
01/10/2020,18:58,86.42,86.44,86.4,86.44, 2330
01/10/2020,18:59,86.41,86.47,86.41,86.43, 1900
01/10/2020,19:00,86.41,86.45,86.41,86.42, 1310
01/10/2020,19:01,86.43,86.47,86.43,86.45, 2390
01/10/2020,19:02,86.47,86.53,86.47,86.53, 1000
01/10/2020,19:03,86.52,86.56,86.52,86.56, 2564
01/10/2020,19:04,86.56,86.56,86.48,86.48, 3572
01/10/2020,19:05,86.46,86.46,86.43,86.45, 3288
01/10/2020,19:06,86.44,86.47,86.44,86.44, 3262
01/10/2020,19:07,86.44,86.45,86.4,86.41, 9469
01/10/2020,19:08,86.4,86.44,86.4,86.43, 4700
01/10/2020,19:09,86.41,86.42,86.36,86.36, 7598
01/10/2020,19:10,86.37,86.37,86.35,86.35, 4628
01/10/2020,19:11,86.36,86.38,86.35,86.37, 1700
01/10/2020,19:12,86.38,86.49,86.38,86.48, 7969
01/10/2020,19:13,86.5,86.5,86.46,86.46, 606
01/10/2020,19:14,86.47,86.47,86.44,86.44, 400
01/10/2020,19:15,86.44,86.44,86.4,86.43, 3756
