04/01/2020,15:31,34.57,34.57,34.505,34.51, 76261
04/01/2020,15:31,34.51,34.75,34.31,34.35, 9802
04/01/2020,15:32,34.35,34.385,33.98,34.056, 16980
04/01/2020,15:32,33.95,34.08,33.6,33.83, 21060
04/01/2020,15:33,33.815,34.2,33.7,34.2, 8615
04/01/2020,15:33,34.31,34.39,33.84,33.84, 14795
04/01/2020,15:34,33.845,34.05,33.75,33.78, 7155
04/01/2020,15:34,33.88,33.91,33.55,33.72, 18858
04/01/2020,15:35,33.66,33.93,33.66,33.92, 2994
04/01/2020,15:35,33.93,34.04,33.78,33.89, 5143
04/01/2020,15:36,33.91,34.17,33.88,34.17, 11616
04/01/2020,15:36,34.17,34.23,34.08,34.09, 6122
04/01/2020,15:37,34.09,34.19,34.09,34.18, 11298
04/01/2020,15:37,34.22,34.25,34.07,34.23, 13788
04/01/2020,15:38,34.24,34.52,34.15,34.52, 27183
04/01/2020,15:39,34.5,34.51,34.305,34.51, 9193
04/01/2020,15:39,34.52,34.7,34.51,34.51, 10411
04/01/2020,15:40,34.51,34.81,34.5,34.63, 4478
04/01/2020,15:41,34.518,34.79,34.49,34.77, 7280
04/01/2020,15:41,34.76,34.76,34.35,34.47, 8800
04/01/2020,15:42,34.5,34.59,34.43,34.55, 6344
04/01/2020,15:43,34.52,34.79,34.51,34.75, 10503
04/01/2020,15:43,34.745,34.835,34.69,34.75, 1200
04/01/2020,15:44,34.69,34.9,34.67,34.79, 7922
04/01/2020,15:45,34.77,34.77,34.6,34.67, 8947
04/01/2020,15:45,34.65,34.68,34.335,34.36, 4609
04/01/2020,15:46,34.37,34.51,34.35,34.37, 22553
04/01/2020,15:47,34.34,34.435,34.2,34.419, 13117
04/01/2020,15:48,34.45,34.61,34.39,34.5, 8549
04/01/2020,15:48,34.59,34.59,34.35,34.35, 4673
04/01/2020,15:49,34.31,34.62,34.31,34.46, 18458
04/01/2020,15:50,34.46,34.7,34.46,34.62, 5213
04/01/2020,15:51,34.585,34.62,34.42,34.61, 7152
04/01/2020,15:51,34.64,34.64,34.57,34.6, 8734
04/01/2020,15:52,34.565,34.65,34.54,34.577, 14083
04/01/2020,15:53,34.597,34.74,34.567,34.567, 12911
04/01/2020,15:54,34.55,34.82,34.415,34.81, 14426
04/01/2020,15:55,34.85,35.112,34.73,34.9, 11899
04/01/2020,15:56,34.9,34.9,34.8,34.8, 4227
04/01/2020,15:57,34.835,34.84,34.675,34.725, 7723
04/01/2020,15:57,34.71,34.79,34.61,34.62, 14837
04/01/2020,15:58,34.59,34.74,34.55,34.74, 4980
04/01/2020,15:58,34.7,34.75,34.67,34.74, 1100
04/01/2020,16:00,34.795,34.795,34.6,34.6, 7098
04/01/2020,16:00,34.622,34.66,34.56,34.62, 2500
04/01/2020,16:01,34.67,34.78,34.56,34.66, 30854
04/01/2020,16:02,34.62,34.71,34.57,34.605, 13624
04/01/2020,16:03,34.64,34.64,34.46,34.59, 15043
04/01/2020,16:03,34.64,34.745,34.485,34.485, 22272
04/01/2020,16:04,34.5,34.63,34.26,34.38, 29194
04/01/2020,16:05,34.365,34.56,34.365,34.515, 8155
04/01/2020,16:06,34.51,34.51,34.25,34.275, 26403
04/01/2020,16:07,34.275,34.34,34.06,34.17, 27456
04/01/2020,16:07,34.23,34.28,34.19,34.22, 9435
04/01/2020,16:08,34.22,34.34,34.09,34.29, 14903
04/01/2020,16:09,34.29,34.5,34.11,34.43, 10806
04/01/2020,16:10,34.445,34.48,34.2,34.455, 11539
04/01/2020,16:11,34.42,34.435,34.275,34.35, 16918
04/01/2020,16:12,34.345,34.365,34.26,34.349, 10988
04/01/2020,16:12,34.32,34.46,34.18,34.19, 5530
04/01/2020,16:13,34.215,34.414,34.215,34.27, 16100
04/01/2020,16:14,34.25,34.43,34.25,34.43, 5500
04/01/2020,16:15,34.41,34.5,34.341,34.35, 4125
04/01/2020,16:16,34.38,34.54,34.35,34.44, 17209
04/01/2020,16:17,34.46,34.585,34.46,34.55, 5664
04/01/2020,16:18,34.6,34.61,34.43,34.44, 9610
04/01/2020,16:19,34.51,34.51,34.37,34.37, 9936
04/01/2020,16:19,34.35,34.53,34.33,34.497, 17298
04/01/2020,16:20,34.49,34.52,34.42,34.45, 5900
04/01/2020,16:21,34.42,34.51,34.4,34.51, 7834
04/01/2020,16:22,34.5,34.53,34.43,34.44, 12733
04/01/2020,16:23,34.45,34.48,34.34,34.42, 5650
04/01/2020,16:24,34.43,34.51,34.38,34.38, 6022
04/01/2020,16:25,34.43,34.46,34.34,34.4, 13258
04/01/2020,16:26,34.37,34.4,34.28,34.37, 12815
04/01/2020,16:27,34.39,34.43,34.31,34.35, 6150
04/01/2020,16:27,34.375,34.4,34.35,34.38, 6448
04/01/2020,16:28,34.41,34.41,34.24,34.38, 14968
04/01/2020,16:29,34.38,34.38,34.26,34.26, 11780
04/01/2020,16:30,34.28,34.3,34.23,34.3, 7500
04/01/2020,16:31,34.3,34.38,34.16,34.265, 14268
04/01/2020,16:32,34.28,34.365,34.25,34.35, 10349
04/01/2020,16:32,34.35,34.44,34.15,34.21, 15851
04/01/2020,16:33,34.31,34.349,34.16,34.19, 6121
04/01/2020,16:33,34.275,34.38,34.11,34.32, 21108
04/01/2020,16:34,34.32,34.44,34.29,34.292, 5831
04/01/2020,16:35,34.22,34.41,34.21,34.41, 2910
04/01/2020,16:36,34.4,34.43,34.32,34.39, 3800
04/01/2020,16:36,34.38,34.57,34.38,34.448, 3432
04/01/2020,16:37,34.46,34.47,34.205,34.24, 4513
04/01/2020,16:38,34.25,34.34,34.23,34.25, 5503
04/01/2020,16:39,34.3,34.4,34.261,34.28, 6790
04/01/2020,16:40,34.27,34.38,34.18,34.38, 34915
04/01/2020,16:41,34.36,34.449,34.33,34.365, 4024
04/01/2020,16:42,34.39,34.47,34.37,34.39, 12912
04/01/2020,16:42,34.39,34.5,34.29,34.5, 10175
04/01/2020,16:43,34.53,34.57,34.415,34.415, 17570
04/01/2020,16:44,34.415,34.5,34.36,34.36, 5862
04/01/2020,16:45,34.38,34.43,34.29,34.31, 34770
04/01/2020,16:46,34.34,34.42,34.335,34.42, 10375
04/01/2020,16:47,34.45,34.45,34.31,34.37, 14809
04/01/2020,16:48,34.37,34.43,34.31,34.32, 22440
04/01/2020,16:49,34.33,34.35,34.27,34.3, 13307
04/01/2020,16:50,34.29,34.4,34.29,34.39, 8500
04/01/2020,16:50,34.35,34.4,34.3,34.365, 8550
04/01/2020,16:51,34.345,34.37,34.26,34.37, 8931
04/01/2020,16:52,34.38,34.39,34.26,34.29, 13275
04/01/2020,16:53,34.34,34.37,34.31,34.31, 8045
04/01/2020,16:54,34.32,34.379,34.3,34.379, 13504
04/01/2020,16:55,34.37,34.4,34.3,34.32, 6859
04/01/2020,16:56,34.32,34.35,34.29,34.29, 4060
04/01/2020,16:57,34.29,34.35,34.24,34.35, 7270
04/01/2020,16:57,34.325,34.325,34.215,34.31, 6501
04/01/2020,16:58,34.335,34.36,34.21,34.26, 7311
04/01/2020,16:59,34.3,34.34,34.23,34.32, 4824
04/01/2020,17:00,34.31,34.4,34.28,34.34, 14896
04/01/2020,17:01,34.33,34.49,34.33,34.47, 29259
04/01/2020,17:02,34.47,34.49,34.315,34.46, 19773
04/01/2020,17:04,34.46,34.625,34.45,34.62, 10300
04/01/2020,17:05,34.62,34.82,34.51,34.82, 12009
04/01/2020,17:06,34.8,34.98,34.77,34.83, 16762
04/01/2020,17:07,34.82,35.02,34.815,35, 15642
04/01/2020,17:09,35,35.17,34.97,35.11, 13876
04/01/2020,17:10,35.07,35.135,35.01,35.01, 14983
04/01/2020,17:11,35.05,35.24,35.05,35.23, 6456
04/01/2020,17:13,35.2,35.37,35.18,35.36, 15424
04/01/2020,17:14,35.36,35.47,35.34,35.39, 20372
04/01/2020,17:15,35.37,35.38,35.15,35.29, 17474
04/01/2020,17:16,35.305,35.305,35.09,35.09, 9360
04/01/2020,17:18,35.09,35.12,34.99,35.12, 8315
04/01/2020,17:19,35.09,35.26,35.06,35.17, 10480
04/01/2020,17:20,35.15,35.18,35.09,35.18, 6507
04/01/2020,17:21,35.14,35.15,34.98,35.1, 5301
04/01/2020,17:22,35.12,35.24,35.05,35.11, 18716
04/01/2020,17:24,35.09,35.25,35.049,35.09, 19587
04/01/2020,17:25,35.09,35.135,34.98,35.12, 9730
04/01/2020,17:26,35.11,35.24,35.07,35.215, 28520
04/01/2020,17:28,35.19,35.19,34.94,35.01, 19437
04/01/2020,17:29,35.01,35.07,34.88,34.895, 25649
04/01/2020,17:31,34.86,34.89,34.74,34.855, 9505
04/01/2020,17:31,34.84,34.92,34.79,34.92, 7068
04/01/2020,17:33,34.88,35.13,34.85,35.05, 22911
04/01/2020,17:35,35.05,35.05,34.81,34.87, 16841
04/01/2020,17:37,34.94,35.055,34.9,34.985, 10354
04/01/2020,17:38,35.01,35.11,34.89,34.976, 13858
04/01/2020,17:40,35.005,35.01,34.93,34.93, 10524
04/01/2020,17:42,34.92,34.93,34.73,34.78, 18007
04/01/2020,17:43,34.74,34.795,34.61,34.735, 15188
04/01/2020,17:46,34.745,34.83,34.7,34.83, 15424
04/01/2020,17:48,34.9,34.9,34.61,34.71, 17424
04/01/2020,17:51,34.74,34.87,34.68,34.73, 15434
04/01/2020,17:53,34.7,34.8,34.66,34.77, 14407
04/01/2020,17:55,34.8,34.85,34.68,34.7, 19959
04/01/2020,17:57,34.73,34.97,34.71,34.84, 127190
04/01/2020,18:00,34.82,34.833,34.7,34.8, 16790
04/01/2020,18:02,34.8,34.8,34.64,34.67, 5100
04/01/2020,18:04,34.69,34.7,34.46,34.47, 17630
04/01/2020,18:06,34.44,34.44,34.25,34.29, 21734
04/01/2020,18:08,34.3,34.35,34.21,34.21, 19710
04/01/2020,18:10,34.22,34.24,34.09,34.115, 13855
04/01/2020,18:11,34.08,34.19,34.075,34.18, 8929
04/01/2020,18:12,34.175,34.19,34.09,34.11, 6702
04/01/2020,18:13,34.11,34.19,34.04,34.05, 4351
04/01/2020,18:14,34.08,34.11,34,34.05, 7997
04/01/2020,18:15,34.03,34.12,34.03,34.12, 2800
04/01/2020,18:16,34.105,34.14,34.06,34.08, 5225
04/01/2020,18:17,34.1,34.1,33.98,33.98, 5724
04/01/2020,18:18,34,34,33.925,33.945, 2237
04/01/2020,18:19,33.9,33.965,33.89,33.96, 6012
04/01/2020,18:20,33.94,33.955,33.91,33.925, 1429
04/01/2020,18:21,33.92,33.97,33.91,33.95, 7857
04/01/2020,18:22,33.97,33.97,33.8,33.898, 8114
04/01/2020,18:23,33.915,33.915,33.81,33.88, 3272
04/01/2020,18:24,33.92,34,33.9,33.96, 5850
04/01/2020,18:25,33.96,34.03,33.96,33.96, 6300
04/01/2020,18:26,33.95,33.95,33.86,33.92, 2904
04/01/2020,18:27,33.92,33.93,33.845,33.9, 3181
04/01/2020,18:28,33.89,33.96,33.88,33.94, 3525
04/01/2020,18:29,33.948,33.97,33.84,33.86, 2800
04/01/2020,18:30,33.875,33.875,33.82,33.865, 3000
04/01/2020,18:31,33.89,33.9,33.85,33.88, 1250
04/01/2020,18:32,33.89,33.97,33.87,33.97, 3642
04/01/2020,18:33,33.99,34,33.96,34, 3799
04/01/2020,18:34,34.02,34.02,33.93,33.95, 5074
04/01/2020,18:35,33.945,34.02,33.93,34.02, 4825
04/01/2020,18:36,34.04,34.07,33.97,33.98, 8435
04/01/2020,18:37,33.98,33.98,33.84,33.855, 8005
04/01/2020,18:38,33.85,33.855,33.76,33.78, 17542
04/01/2020,18:39,33.8,33.83,33.72,33.79, 13193
04/01/2020,18:40,33.82,33.84,33.78,33.803, 2822
04/01/2020,18:41,33.77,33.86,33.77,33.82, 3083
04/01/2020,18:42,33.845,33.845,33.82,33.84, 2587
04/01/2020,18:43,33.82,33.82,33.79,33.79, 2104
04/01/2020,18:44,33.78,33.84,33.76,33.83, 2785
04/01/2020,18:45,33.85,33.9,33.83,33.9, 1380
04/01/2020,18:46,33.87,34.01,33.84,34.01, 6770
04/01/2020,18:47,34.01,34.04,33.96,33.98, 9722
04/01/2020,18:48,33.965,33.965,33.8,33.81, 12165
04/01/2020,18:49,33.815,33.86,33.79,33.84, 2825
04/01/2020,18:50,33.835,33.87,33.739,33.739, 5247
04/01/2020,18:51,33.745,33.79,33.745,33.77, 1701
04/01/2020,18:52,33.785,33.82,33.765,33.805, 17820
04/01/2020,18:53,33.79,33.84,33.79,33.84, 2201
04/01/2020,18:54,33.88,33.88,33.76,33.76, 2542
04/01/2020,18:55,33.74,33.9,33.72,33.87, 4620
04/01/2020,18:56,33.87,33.955,33.8,33.955, 2242
04/01/2020,18:57,33.94,34.01,33.82,33.925, 5612
04/01/2020,18:58,33.91,34.07,33.91,34.06, 4600
04/01/2020,18:59,34.03,34.08,33.96,33.96, 2825
04/01/2020,19:00,33.97,34.04,33.96,33.99, 2100
04/01/2020,19:01,34.03,34.04,34,34.01, 6108
04/01/2020,19:02,33.98,33.99,33.911,33.97, 3354
04/01/2020,19:03,33.965,34.04,33.95,33.95, 3600
04/01/2020,19:04,33.94,34.13,33.93,34.09, 2725
04/01/2020,19:05,34.09,34.14,34.04,34.14, 3868
04/01/2020,19:06,34.1,34.14,34.09,34.12, 2175
04/01/2020,19:07,34.1,34.2,34.063,34.18, 10748
04/01/2020,19:08,34.15,34.205,34.125,34.19, 14520
04/01/2020,19:09,34.21,34.21,34.1,34.1, 7022
04/01/2020,19:10,34.07,34.23,34.065,34.22, 36021
04/01/2020,19:11,34.215,34.215,33.99,34.05, 7344
04/01/2020,19:12,34.07,34.1,33.98,34.06, 5164
04/01/2020,19:13,34.05,34.08,33.97,33.97, 3400
04/01/2020,19:14,33.96,33.99,33.95,33.95, 3124
04/01/2020,19:15,33.925,33.93,33.86,33.891, 2648
04/01/2020,19:16,33.94,33.98,33.85,33.94, 7629
04/01/2020,19:17,33.92,33.96,33.9,33.92, 3570
04/01/2020,19:18,33.95,33.95,33.87,33.87, 2939
04/01/2020,19:19,33.91,34,33.91,33.97, 3400
04/01/2020,19:20,34.01,34.01,33.95,34, 2955
04/01/2020,19:21,34,34.02,33.934,33.98, 4080
04/01/2020,19:22,34.04,34.04,33.98,33.99, 2082
04/01/2020,19:23,34.01,34.11,34.01,34.045, 2675
04/01/2020,19:24,34.042,34.14,33.99,34.035, 3841
04/01/2020,19:25,34.06,34.09,33.99,34.01, 4398
04/01/2020,19:26,34.02,34.04,33.97,34.04, 4783
04/01/2020,19:27,34.075,34.18,34.06,34.09, 4088
04/01/2020,19:28,34.09,34.11,33.963,34.025, 7281
04/01/2020,19:29,34.03,34.1,34,34.1, 4375
04/01/2020,19:30,34.05,34.14,34.01,34.14, 4400
04/01/2020,19:31,34.14,34.15,34.03,34.12, 6611
04/01/2020,19:32,34.14,34.16,34.03,34.13, 4505
04/01/2020,19:33,34.14,34.15,34.03,34.05, 4097
04/01/2020,19:34,34.04,34.08,34.02,34.06, 2815
04/01/2020,19:35,34.03,34.25,33.98,34.2, 14848
04/01/2020,19:36,34.17,34.19,34.11,34.125, 4060
04/01/2020,19:37,34.102,34.14,34.062,34.13, 7883
04/01/2020,19:38,34.12,34.24,34.08,34.18, 18302
04/01/2020,19:39,34.18,34.2,34.13,34.15, 9437
04/01/2020,19:40,34.15,34.195,34.13,34.18, 6694
04/01/2020,19:41,34.187,34.21,34.13,34.17, 7281
04/01/2020,19:42,34.19,34.22,34.12,34.219, 8889
04/01/2020,19:43,34.22,34.24,34.15,34.17, 15245
04/01/2020,19:44,34.17,34.23,34.17,34.17, 4949
04/01/2020,19:45,34.19,34.31,34.17,34.295, 5027
04/01/2020,19:46,34.29,34.32,34.15,34.19, 6397
04/01/2020,19:47,34.18,34.2,34.13,34.19, 6147
04/01/2020,19:48,34.2,34.2,34.12,34.18, 6489
04/01/2020,19:49,34.17,34.24,34.16,34.195, 5313
04/01/2020,19:50,34.21,34.28,34.21,34.235, 6349
04/01/2020,19:51,34.235,34.59,34.16,34.59, 20080
04/01/2020,19:52,34.59,34.63,34.411,34.6, 17075
04/01/2020,19:53,34.63,34.99,34.63,34.96, 55943
04/01/2020,19:54,34.96,34.96,34.71,34.74, 7100
04/01/2020,19:55,34.67,34.85,34.59,34.85, 10790
04/01/2020,19:56,34.85,34.88,34.805,34.87, 5336
04/01/2020,19:57,34.87,35.005,34.87,35, 11749
04/01/2020,19:58,35,35.03,34.94,35.005, 2629
04/01/2020,19:59,34.96,34.97,34.89,34.918, 4582
04/01/2020,20:00,34.925,35.02,34.925,34.935, 6831
04/01/2020,20:01,34.97,34.98,34.86,34.97, 5049
04/01/2020,20:02,35.01,35.01,34.8,34.85, 5600
04/01/2020,20:03,34.87,34.87,34.81,34.845, 5696
04/01/2020,20:04,34.86,34.95,34.84,34.91, 7117
04/01/2020,20:05,34.94,35.1,34.935,35.055, 8672
04/01/2020,20:06,35.07,35.07,34.97,35.03, 4220
04/01/2020,20:07,35.024,35.21,35.024,35.18, 14080
04/01/2020,20:08,35.175,35.21,35.11,35.11, 4275
04/01/2020,20:09,35.13,35.18,35.1,35.17, 5700
04/01/2020,20:10,35.22,35.3,35.215,35.235, 5175
04/01/2020,20:11,35.26,35.26,35.1,35.125, 2062
04/01/2020,20:12,35.1,35.15,35.1,35.145, 1082
04/01/2020,20:13,35.125,35.15,35.08,35.11, 15574
04/01/2020,20:14,35.09,35.16,35.08,35.16, 3600
04/01/2020,20:15,35.16,35.17,35.07,35.09, 7696
04/01/2020,20:16,35.09,35.13,35.07,35.07, 1900
04/01/2020,20:17,35.14,35.17,35.12,35.13, 2692
04/01/2020,20:18,35.11,35.11,35.02,35.08, 7320
04/01/2020,20:19,35.11,35.19,35.08,35.13, 22956
04/01/2020,20:20,35.13,35.16,35.06,35.1, 7143
04/01/2020,20:21,35.09,35.17,35.04,35.05, 7292
04/01/2020,20:22,35.06,35.08,34.93,34.98, 4812
04/01/2020,20:23,35.05,35.14,35.02,35.14, 5180
04/01/2020,20:24,35.13,35.18,35.02,35.18, 16656
04/01/2020,20:25,35.16,35.24,35.12,35.12, 7783
04/01/2020,20:26,35.07,35.14,35.02,35.02, 3265
04/01/2020,20:27,35.02,35.04,34.95,35.017, 5793
04/01/2020,20:28,35.03,35.06,34.89,34.955, 4045
04/01/2020,20:29,34.96,34.97,34.87,34.96, 15623
04/01/2020,20:30,34.93,34.93,34.77,34.87, 21299
04/01/2020,20:31,34.87,34.89,34.77,34.78, 3690
04/01/2020,20:32,34.77,34.79,34.7,34.77, 11320
04/01/2020,20:33,34.74,34.78,34.7,34.7, 9030
04/01/2020,20:34,34.68,34.69,34.53,34.67, 9036
04/01/2020,20:35,34.625,34.7,34.625,34.675, 30423
04/01/2020,20:36,34.69,34.77,34.68,34.76, 24589
04/01/2020,20:37,34.78,34.78,34.68,34.72, 5571
04/01/2020,20:38,34.72,34.74,34.685,34.69, 8710
04/01/2020,20:39,34.71,34.74,34.66,34.66, 13821
04/01/2020,20:40,34.66,34.79,34.66,34.76, 13122
04/01/2020,20:41,34.76,34.78,34.73,34.74, 9821
04/01/2020,20:42,34.76,34.84,34.66,34.66, 5307
04/01/2020,20:43,34.67,34.69,34.66,34.69, 9624
04/01/2020,20:44,34.69,34.71,34.58,34.62, 9044
04/01/2020,20:45,34.65,34.69,34.62,34.69, 3568
04/01/2020,20:46,34.72,34.75,34.67,34.75, 3578
04/01/2020,20:47,34.74,34.8,34.725,34.77, 6964
04/01/2020,20:48,34.74,34.83,34.7,34.77, 3212
04/01/2020,20:49,34.75,34.81,34.71,34.79, 6133
04/01/2020,20:50,34.75,34.79,34.7,34.79, 1174
04/01/2020,20:51,34.82,34.847,34.75,34.75, 6631
04/01/2020,20:52,34.749,34.77,34.63,34.72, 7058
04/01/2020,20:53,34.72,34.74,34.685,34.732, 2100
04/01/2020,20:54,34.735,34.78,34.71,34.78, 4129
04/01/2020,20:55,34.77,34.8,34.74,34.755, 5586
04/01/2020,20:56,34.78,34.78,34.65,34.68, 3780
04/01/2020,20:57,34.68,34.68,34.59,34.64, 11941
04/01/2020,20:58,34.64,34.67,34.58,34.594, 6245
04/01/2020,20:59,34.63,34.65,34.57,34.57, 5245
04/01/2020,21:00,34.59,34.625,34.57,34.59, 8721
04/01/2020,21:01,34.61,34.67,34.57,34.67, 7844
04/01/2020,21:02,34.695,34.76,34.67,34.72, 9215
04/01/2020,21:03,34.7,34.73,34.67,34.67, 10928
04/01/2020,21:04,34.63,34.68,34.6,34.68, 10161
04/01/2020,21:05,34.7,34.755,34.63,34.63, 4650
04/01/2020,21:06,34.65,34.66,34.56,34.59, 6029
04/01/2020,21:07,34.59,34.67,34.59,34.66, 8962
04/01/2020,21:08,34.66,34.69,34.58,34.595, 4250
04/01/2020,21:09,34.61,34.62,34.53,34.55, 9799
04/01/2020,21:10,34.55,34.63,34.55,34.63, 973
04/01/2020,21:11,34.63,34.655,34.59,34.6, 4044
04/01/2020,21:12,34.595,34.66,34.55,34.635, 3344
04/01/2020,21:13,34.64,34.71,34.64,34.67, 2975
04/01/2020,21:14,34.65,34.67,34.61,34.65, 2422
04/01/2020,21:15,34.666,34.675,34.61,34.625, 4652
04/01/2020,21:16,34.64,34.64,34.53,34.54, 6390
04/01/2020,21:17,34.552,34.6,34.53,34.6, 5951
04/01/2020,21:18,34.6,34.6,34.55,34.6, 8992
04/01/2020,21:19,34.61,34.63,34.575,34.595, 13348
04/01/2020,21:20,34.61,34.61,34.56,34.59, 23400
04/01/2020,21:21,34.59,34.62,34.55,34.55, 12999
04/01/2020,21:22,34.57,34.57,34.52,34.56, 13386
04/01/2020,21:23,34.57,34.58,34.45,34.47, 6644
04/01/2020,21:24,34.46,34.525,34.46,34.47, 9259
04/01/2020,21:25,34.47,34.49,34.425,34.425, 4510
04/01/2020,21:26,34.41,34.44,34.37,34.37, 22089
04/01/2020,21:27,34.37,34.42,34.36,34.415, 10453
04/01/2020,21:28,34.41,34.42,34.34,34.41, 6813
04/01/2020,21:29,34.395,34.45,34.38,34.43, 14650
04/01/2020,21:30,34.41,34.41,34.31,34.34, 12621
04/01/2020,21:31,34.35,34.37,34.32,34.33, 15535
04/01/2020,21:32,34.34,34.37,34.31,34.33, 15370
04/01/2020,21:33,34.33,34.35,34.245,34.25, 22131
04/01/2020,21:34,34.26,34.295,34.23,34.23, 30893
04/01/2020,21:35,34.24,34.29,34.226,34.24, 11561
04/01/2020,21:36,34.235,34.24,34.12,34.14, 17830
04/01/2020,21:37,34.145,34.22,34.14,34.2, 9604
04/01/2020,21:38,34.2,34.22,34.14,34.16, 16885
04/01/2020,21:39,34.21,34.21,34.11,34.11, 12975
04/01/2020,21:40,34.07,34.09,34.015,34.04, 11635
04/01/2020,21:41,34.04,34.13,34.02,34.13, 11346
04/01/2020,21:42,34.12,34.15,34.07,34.085, 10440
04/01/2020,21:43,34.1,34.14,34.02,34.03, 20907
04/01/2020,21:44,34.04,34.09,34.04,34.06, 8259
04/01/2020,21:45,34.05,34.06,33.99,34.01, 10273
04/01/2020,21:46,34,34.13,33.93,34.13, 12548
04/01/2020,21:46,34.11,34.23,34.07,34.19, 6514
04/01/2020,21:47,34.153,34.2,34.12,34.14, 7195
04/01/2020,21:48,34.14,34.15,34.08,34.15, 10261
04/01/2020,21:49,34.17,34.32,34.14,34.29, 9410
04/01/2020,21:50,34.32,34.44,34.32,34.36, 19405
04/01/2020,21:51,34.36,34.73,34.31,34.72, 16456
04/01/2020,21:51,34.49,34.75,34.4,34.56, 34412
04/01/2020,21:52,34.53,34.69,34.46,34.58, 33159
04/01/2020,21:53,34.56,34.6,34.5,34.53, 21215
04/01/2020,21:53,34.53,34.68,34.485,34.66, 17970
04/01/2020,21:54,34.67,34.74,34.555,34.72, 17667
04/01/2020,21:55,34.73,34.76,34.625,34.66, 21092
04/01/2020,21:55,34.69,34.84,34.69,34.73, 20079
04/01/2020,21:56,34.72,34.91,34.71,34.77, 21260
04/01/2020,21:56,34.77,34.85,34.69,34.83, 17375
04/01/2020,21:57,34.84,34.94,34.76,34.76, 19324
04/01/2020,21:58,34.74,34.78,34.65,34.71, 14027
04/01/2020,21:58,34.7,34.705,34.62,34.64, 19380
04/01/2020,21:59,34.64,34.68,34.59,34.66, 18706
04/01/2020,21:59,34.65,34.7,34.55,34.7, 19697
04/01/2020,22:00,34.72,34.8,34.69,34.71, 27433
04/01/2020,22:00,34.72,34.735,34.61,34.69, 40834
04/01/2020,22:03,34.71,34.78,34.56,34.6, 751511
04/02/2020,15:31,36.63,36.78,36.63,36.725, 93058
04/02/2020,15:31,36.725,36.98,36.66,36.75, 10096
04/02/2020,15:32,36.855,36.855,36.57,36.6, 11967
04/02/2020,15:32,36.664,36.664,36.288,36.525, 31626
04/02/2020,15:33,36.57,36.89,36.57,36.75, 6497
04/02/2020,15:34,36.775,36.83,36.535,36.65, 14444
04/02/2020,15:34,36.66,36.8,36.608,36.775, 14206
04/02/2020,15:35,36.846,37.56,36.78,37.5, 48979
04/02/2020,15:35,37.53,37.59,37.44,37.47, 12500
04/02/2020,15:36,37.54,37.92,37.53,37.845, 24348
04/02/2020,15:36,37.87,37.94,37.681,37.82, 12543
04/02/2020,15:37,37.83,37.89,37.727,37.727, 11210
04/02/2020,15:37,37.79,37.83,37.501,37.61, 27845
04/02/2020,15:38,37.5,37.67,37.165,37.167, 25163
04/02/2020,15:39,37.175,37.38,37.01,37.27, 15610
04/02/2020,15:40,37.31,37.48,37.011,37.06, 14845
04/02/2020,15:40,37.18,37.24,36.92,37.02, 7266
04/02/2020,15:41,37.02,37.15,37,37.1, 10210
04/02/2020,15:42,37.08,37.13,36.72,36.767, 5550
04/02/2020,15:42,36.745,36.86,36.68,36.71, 30835
04/02/2020,15:43,36.78,36.89,36.71,36.835, 6377
04/02/2020,15:43,36.83,36.98,36.83,36.98, 3000
04/02/2020,15:44,36.91,37,36.611,36.765, 7669
04/02/2020,15:45,36.735,36.87,36.64,36.65, 1400
04/02/2020,15:46,36.66,36.684,36.51,36.645, 8031
04/02/2020,15:46,36.59,36.66,36.505,36.58, 7750
04/02/2020,15:47,36.54,36.62,36.45,36.52, 6152
04/02/2020,15:48,36.48,36.72,36.36,36.71, 11241
04/02/2020,15:48,36.72,36.72,36.505,36.505, 10613
04/02/2020,15:49,36.48,36.68,36.45,36.63, 4282
04/02/2020,15:50,36.503,36.7,36.503,36.61, 18107
04/02/2020,15:51,36.61,36.88,36.59,36.8, 13665
04/02/2020,15:52,36.79,36.93,36.76,36.83, 3800
04/02/2020,15:53,36.815,36.86,36.73,36.86, 10617
04/02/2020,15:54,36.855,36.88,36.775,36.785, 7517
04/02/2020,15:55,36.83,36.83,36.65,36.695, 3050
04/02/2020,15:56,36.67,36.79,36.665,36.666, 4989
04/02/2020,15:56,36.72,36.926,36.72,36.815, 14237
04/02/2020,15:58,36.757,36.92,36.68,36.76, 10694
04/02/2020,15:58,36.76,37.21,36.74,37.21, 15245
04/02/2020,16:00,37.21,37.43,37.21,37.404, 6151
04/02/2020,16:01,37.388,37.5,37.29,37.44, 6720
04/02/2020,16:01,37.44,37.481,37.39,37.481, 1761
04/02/2020,16:02,37.4,37.46,37.16,37.175, 4463
04/02/2020,16:03,37.25,37.365,37.21,37.365, 5744
04/02/2020,16:04,37.4,37.415,37.33,37.415, 3570
04/02/2020,16:05,37.37,37.46,37.31,37.375, 7064
04/02/2020,16:06,37.41,37.41,37.24,37.24, 6670
04/02/2020,16:07,37.27,37.298,37.21,37.28, 3943
04/02/2020,16:07,37.24,37.35,37.195,37.32, 4509
04/02/2020,16:08,37.25,37.42,37.24,37.31, 8121
04/02/2020,16:09,37.28,37.4,37.23,37.375, 14629
04/02/2020,16:10,37.375,37.49,37.35,37.49, 14591
04/02/2020,16:11,37.47,37.64,37.45,37.56, 10867
04/02/2020,16:11,37.52,37.645,37.51,37.62, 15805
04/02/2020,16:12,37.648,37.65,37.51,37.51, 6557
04/02/2020,16:12,37.58,37.64,37.51,37.64, 4634
04/02/2020,16:13,37.61,37.66,37.56,37.6, 4888
04/02/2020,16:14,37.64,37.71,37.58,37.58, 13246
04/02/2020,16:15,37.525,37.61,37.41,37.56, 18907
04/02/2020,16:15,37.56,37.69,37.555,37.66, 8424
04/02/2020,16:16,37.66,37.665,37.46,37.46, 14700
04/02/2020,16:17,37.49,37.645,37.49,37.54, 10175
04/02/2020,16:18,37.56,37.81,37.515,37.81, 17555
04/02/2020,16:19,37.82,37.85,37.56,37.565, 11246
04/02/2020,16:19,37.6,37.85,37.6,37.85, 7623
04/02/2020,16:20,37.84,37.9,37.76,37.88, 15906
04/02/2020,16:20,37.803,38,37.803,38, 2671
04/02/2020,16:21,38,38.38,37.99,38.38, 45909
04/02/2020,16:21,38.39,38.45,38.25,38.395, 13109
04/02/2020,16:22,38.395,38.64,38.34,38.6, 27137
04/02/2020,16:23,38.6,38.7,38.44,38.6, 19017
04/02/2020,16:23,38.61,38.72,38.46,38.72, 15558
04/02/2020,16:24,38.71,38.755,38.46,38.565, 18320
04/02/2020,16:25,38.55,38.61,38.264,38.36, 14899
04/02/2020,16:25,38.305,38.32,38.06,38.07, 5012
04/02/2020,16:26,38.02,38.26,38.02,38.185, 11452
04/02/2020,16:26,38.19,38.44,38.1,38.44, 22738
04/02/2020,16:27,38.432,38.48,38.31,38.31, 2000
04/02/2020,16:27,38.4,38.515,38.26,38.37, 10741
04/02/2020,16:28,38.44,38.49,38.17,38.32, 21092
04/02/2020,16:28,38.17,38.29,38.05,38.22, 5225
04/02/2020,16:29,38.185,38.24,38.003,38.14, 6377
04/02/2020,16:30,38.05,38.39,38.03,38.39, 25495
04/02/2020,16:30,38.45,39.56,38.39,39.46, 44728
04/02/2020,16:30,39.46,39.67,39.24,39.384, 19201
04/02/2020,16:31,39.46,39.71,38.94,39.59, 27118
04/02/2020,16:32,39.68,40.72,39.47,40.72, 37907
04/02/2020,16:32,40.74,41.23,40.44,41.22, 30961
04/02/2020,16:33,40.95,41.15,40.615,40.91, 62748
04/02/2020,16:34,40.91,40.91,39.95,40.535, 91947
04/02/2020,16:35,40.485,40.723,40.07,40.51, 19248
04/02/2020,16:35,40.48,41.47,40.28,41.47, 36968
04/02/2020,16:36,41.465,42.17,41.315,42.09, 97953
04/02/2020,16:37,42.09,42.5,41.8,41.81, 29512
04/02/2020,16:38,42.08,42.705,41.42,42.41, 28224
04/02/2020,16:39,42.35,42.95,42.35,42.76, 42921
04/02/2020,16:39,42.69,43.04,42.46,42.9, 66754
04/02/2020,16:40,42.81,43.18,42.47,43, 20568
04/02/2020,16:41,43.03,43.45,42.51,42.76, 21363
04/02/2020,16:41,42.795,43,42.54,42.65, 19174
04/02/2020,16:42,42.635,42.635,42.07,42.25, 22610
04/02/2020,16:42,42.24,42.505,42.02,42.19, 45271
04/02/2020,16:43,42.34,42.725,42.325,42.63, 20251
04/02/2020,16:43,42.7,42.91,42.445,42.6, 22171
04/02/2020,16:44,42.71,42.71,42.48,42.69, 7496
04/02/2020,16:45,42.6,42.67,42.28,42.535, 24179
04/02/2020,16:46,42.44,42.62,41.91,42.21, 16697
04/02/2020,16:46,42.25,42.53,41.98,42.48, 13846
04/02/2020,16:47,42.37,42.445,41.885,42.095, 23646
04/02/2020,16:47,42.1,42.18,41.46,41.5, 13567
04/02/2020,16:48,41.48,41.76,41.27,41.36, 19053
04/02/2020,16:49,41.38,41.5,41.14,41.405, 13547
04/02/2020,16:49,41.216,41.741,41.2,41.612, 12633
04/02/2020,16:50,41.613,41.73,40.77,41.14, 44433
04/02/2020,16:51,41.23,41.26,40.5,40.79, 49102
04/02/2020,16:52,40.89,41.28,39.83,40.4, 77081
04/02/2020,16:54,40.75,41.05,40.41,40.763, 43386
04/02/2020,16:55,40.85,40.9,40.69,40.76, 18092
04/02/2020,16:59,40.84,41.24,40.84,41.16, 11165
04/02/2020,17:02,41.08,41.315,40.53,40.845, 26974
04/02/2020,17:05,40.93,41.33,40.822,41.1, 23240
04/02/2020,17:08,41.105,41.135,40.34,40.435, 5903
04/02/2020,17:09,40.463,40.71,40.25,40.5, 23968
04/02/2020,17:11,40.49,40.57,40.34,40.37, 16352
04/02/2020,17:12,40.46,40.57,40.021,40.08, 27212
04/02/2020,17:13,40.045,40.27,39.98,40.27, 24217
04/02/2020,17:14,40.265,40.27,39.69,39.77, 31534
04/02/2020,17:15,39.69,40.12,39.69,39.86, 21135
04/02/2020,17:16,39.795,40.06,39.795,40.044, 5803
04/02/2020,17:17,40.09,40.18,39.9,39.9, 8834
04/02/2020,17:18,39.885,39.99,39.66,39.79, 29882
04/02/2020,17:19,39.82,39.96,39.66,39.745, 8165
04/02/2020,17:20,39.765,40.23,39.5,39.625, 20450
04/02/2020,17:21,39.625,39.69,39.43,39.61, 12785
04/02/2020,17:22,39.56,39.949,39.55,39.949, 22637
04/02/2020,17:23,39.84,39.86,39.72,39.74, 38227
04/02/2020,17:24,39.785,39.92,39.54,39.81, 39737
04/02/2020,17:25,39.84,39.87,39.73,39.78, 18721
04/02/2020,17:26,39.806,39.93,39.74,39.83, 43501
04/02/2020,17:28,39.78,39.85,39.47,39.505, 39087
04/02/2020,17:29,39.46,39.78,39.31,39.65, 22390
04/02/2020,17:30,39.615,39.615,39,39.25, 172679
04/02/2020,17:31,39.26,39.44,39.19,39.19, 7367
04/02/2020,17:31,39.11,39.26,39.03,39.23, 16575
04/02/2020,17:33,39.22,39.5,39.19,39.4, 19785
04/02/2020,17:34,39.31,39.61,39.241,39.505, 18811
04/02/2020,17:36,39.47,39.78,39.38,39.75, 34780
04/02/2020,17:37,39.78,40.05,39.6,39.83, 33271
04/02/2020,17:39,39.93,39.93,39.57,39.69, 57137
04/02/2020,17:40,39.73,39.735,39.39,39.58, 30206
04/02/2020,17:42,39.581,39.65,39.46,39.525, 29603
04/02/2020,17:44,39.54,39.66,39.37,39.66, 52915
04/02/2020,17:46,39.705,39.79,39.31,39.31, 139041
04/02/2020,17:47,39.42,39.51,39.27,39.435, 47869
04/02/2020,17:49,39.4,39.59,39.3,39.37, 72676
04/02/2020,17:51,39.375,39.46,39.15,39.345, 137717
04/02/2020,17:53,39.38,39.47,39.26,39.4, 83481
04/02/2020,17:55,39.38,39.43,39.25,39.25, 61416
04/02/2020,17:57,39.25,39.46,39.24,39.415, 39317
04/02/2020,17:58,39.415,39.485,39.28,39.44, 69280
04/02/2020,18:00,39.445,39.495,39.17,39.485, 46461
04/02/2020,18:03,39.485,39.56,39.16,39.315, 59028
04/02/2020,18:05,39.28,39.35,39.15,39.157, 16566
04/02/2020,18:06,39.2,39.38,39.13,39.33, 56422
04/02/2020,18:08,39.327,39.36,39.111,39.12, 52706
04/02/2020,18:10,39.09,39.3,39.09,39.28, 15468
04/02/2020,18:12,39.312,39.312,39.04,39.105, 43544
04/02/2020,18:13,39.11,39.62,39.105,39.54, 59675
04/02/2020,18:15,39.58,39.725,39.46,39.5, 73869
04/02/2020,18:17,39.51,39.52,39.06,39.103, 39365
04/02/2020,18:19,39.105,39.13,38.82,39, 73554
04/02/2020,18:21,38.98,39.32,38.96,39.245, 38500
04/02/2020,18:23,39.255,39.27,38.86,39.1, 33518
04/02/2020,18:24,39.05,39.35,38.95,39.25, 19888
04/02/2020,18:26,39.26,39.285,39.1,39.25, 16139
04/02/2020,18:28,39.26,39.28,39.125,39.21, 16757
04/02/2020,18:29,39.155,39.16,39,39, 15547
04/02/2020,18:30,38.99,39.03,38.91,39, 7441
04/02/2020,18:31,39,39,38.79,38.885, 21294
04/02/2020,18:32,38.91,38.96,38.82,38.9, 13918
04/02/2020,18:33,38.88,38.885,38.74,38.74, 12834
04/02/2020,18:34,38.71,38.74,38.57,38.66, 20543
04/02/2020,18:35,38.625,38.74,38.53,38.69, 18472
04/02/2020,18:36,38.685,38.72,38.51,38.607, 30588
04/02/2020,18:37,38.57,38.65,38.52,38.575, 45506
04/02/2020,18:38,38.58,38.7,38.49,38.62, 34837
04/02/2020,18:39,38.62,38.725,38.56,38.625, 24073
04/02/2020,18:40,38.6,38.69,38.52,38.665, 16064
04/02/2020,18:41,38.665,38.7,38.58,38.625, 23636
04/02/2020,18:42,38.625,38.7,38.6,38.62, 17799
04/02/2020,18:43,38.615,38.71,38.58,38.65, 24999
04/02/2020,18:44,38.65,38.7,38.61,38.63, 43476
04/02/2020,18:45,38.62,38.63,38.53,38.55, 24409
04/02/2020,18:46,38.52,38.63,38.5,38.535, 17304
04/02/2020,18:47,38.54,38.61,38.53,38.6, 37474
04/02/2020,18:48,38.59,38.64,38.56,38.62, 31921
04/02/2020,18:49,38.62,38.62,38.55,38.57, 23354
04/02/2020,18:50,38.52,38.54,38.33,38.49, 22103
04/02/2020,18:51,38.49,38.62,38.49,38.56, 17962
04/02/2020,18:52,38.58,38.61,38.57,38.6, 15261
04/02/2020,18:53,38.6,38.64,38.56,38.61, 23262
04/02/2020,18:54,38.64,38.64,38.42,38.45, 11101
04/02/2020,18:55,38.47,38.59,38.47,38.53, 13448
04/02/2020,18:56,38.5,38.52,38.445,38.46, 17278
04/02/2020,18:57,38.45,38.63,38.45,38.56, 19496
04/02/2020,18:58,38.575,38.63,38.46,38.51, 20472
04/02/2020,18:59,38.52,38.59,38.51,38.58, 8348
04/02/2020,19:00,38.53,38.63,38.475,38.6, 53516
04/02/2020,19:01,38.6,38.61,38.51,38.54, 9545
04/02/2020,19:02,38.54,38.6,38.5,38.58, 29715
04/02/2020,19:03,38.6,38.615,38.54,38.542, 6805
04/02/2020,19:04,38.555,38.891,38.555,38.79, 43336
04/02/2020,19:05,38.79,38.9,38.67,38.74, 15552
04/02/2020,19:06,38.76,38.76,38.51,38.53, 15334
04/02/2020,19:07,38.535,38.575,38.2,38.39, 37424
04/02/2020,19:08,38.42,38.52,38.35,38.435, 18527
04/02/2020,19:09,38.435,38.455,38.16,38.2, 28302
04/02/2020,19:10,38.2,38.35,38.19,38.33, 19905
04/02/2020,19:11,38.41,38.41,38.18,38.21, 31901
04/02/2020,19:12,38.2,38.26,37.99,38.04, 30917
04/02/2020,19:13,38.05,38.05,37.86,37.905, 52057
04/02/2020,19:14,37.88,37.905,37.71,37.775, 35772
04/02/2020,19:15,37.78,37.78,37.54,37.625, 21411
04/02/2020,19:16,37.67,37.7,37.48,37.56, 23389
04/02/2020,19:17,37.59,37.59,37.34,37.545, 50147
04/02/2020,19:18,37.52,37.66,37.49,37.555, 14802
04/02/2020,19:19,37.555,37.63,37.475,37.59, 6185
04/02/2020,19:20,37.58,37.661,37.58,37.602, 4669
04/02/2020,19:21,37.52,37.63,37.43,37.5, 20780
04/02/2020,19:22,37.515,37.55,37.34,37.412, 15243
04/02/2020,19:23,37.36,37.395,37.25,37.3, 16060
04/02/2020,19:24,37.32,37.33,37.18,37.265, 51139
04/02/2020,19:25,37.22,37.49,37.22,37.36, 21802
04/02/2020,19:26,37.37,37.41,37.31,37.33, 11554
04/02/2020,19:27,37.28,37.315,37.15,37.24, 59951
04/02/2020,19:28,37.23,37.28,37.18,37.245, 30777
04/02/2020,19:29,37.245,37.31,37.12,37.132, 16064
04/02/2020,19:30,37.135,37.135,36.94,36.98, 16648
04/02/2020,19:31,36.98,37.005,36.91,36.92, 18252
04/02/2020,19:32,36.94,37.355,36.94,37.34, 19635
04/02/2020,19:33,37.36,37.54,37.26,37.28, 28514
04/02/2020,19:34,37.25,37.356,37.24,37.315, 17936
04/02/2020,19:35,37.27,37.447,37.23,37.41, 5268
04/02/2020,19:36,37.52,37.59,37.3,37.3, 13724
04/02/2020,19:37,37.28,37.46,37.1,37.45, 18901
04/02/2020,19:38,37.42,37.55,37.41,37.46, 3923
04/02/2020,19:39,37.5,37.53,37.41,37.46, 3174
04/02/2020,19:40,37.51,37.66,37.39,37.39, 16835
04/02/2020,19:41,37.405,37.49,37.3,37.39, 11857
04/02/2020,19:42,37.405,37.49,37.36,37.485, 12483
04/02/2020,19:43,37.46,37.51,37.395,37.5, 16290
04/02/2020,19:44,37.55,37.59,37.415,37.54, 19458
04/02/2020,19:45,37.55,37.695,37.47,37.62, 8054
04/02/2020,19:46,37.6,37.62,37.53,37.56, 7796
04/02/2020,19:47,37.579,37.6,37.445,37.48, 6681
04/02/2020,19:48,37.46,37.51,37.37,37.415, 9184
04/02/2020,19:49,37.435,37.55,37.36,37.5, 17212
04/02/2020,19:50,37.5,37.63,37.465,37.6, 8566
04/02/2020,19:51,37.57,37.595,37.47,37.47, 4157
04/02/2020,19:52,37.48,37.8,37.48,37.671, 14054
04/02/2020,19:53,37.697,37.87,37.65,37.71, 12535
04/02/2020,19:54,37.74,37.778,37.68,37.74, 3949
04/02/2020,19:55,37.74,37.88,37.74,37.811, 13081
04/02/2020,19:56,37.86,37.925,37.57,37.63, 31275
04/02/2020,19:57,37.66,37.71,37.61,37.61, 5426
04/02/2020,19:58,37.61,37.72,37.56,37.65, 13636
04/02/2020,19:59,37.665,37.77,37.63,37.67, 7961
04/02/2020,20:00,37.653,37.68,37.57,37.65, 5062
04/02/2020,20:01,37.63,37.685,37.56,37.6, 7831
04/02/2020,20:02,37.6,37.63,37.53,37.55, 8463
04/02/2020,20:03,37.53,37.56,37.35,37.4, 7713
04/02/2020,20:04,37.45,37.47,37.33,37.36, 4887
04/02/2020,20:05,37.4,37.42,37.31,37.42, 5687
04/02/2020,20:06,37.404,37.44,37.36,37.36, 8908
04/02/2020,20:07,37.34,37.47,37.29,37.34, 7901
04/02/2020,20:08,37.3,37.32,37.14,37.18, 14933
04/02/2020,20:09,37.2,37.2,37.125,37.16, 8021
04/02/2020,20:10,37.16,37.244,37.1,37.215, 12499
04/02/2020,20:11,37.24,37.265,37.06,37.08, 15572
04/02/2020,20:12,37.09,37.105,37.04,37.05, 11433
04/02/2020,20:13,37.03,37.06,36.94,37, 39142
04/02/2020,20:14,37,37.13,36.98,37.05, 16275
04/02/2020,20:15,37.05,37.44,37.04,37.27, 26841
04/02/2020,20:16,37.33,37.41,37.2,37.246, 17304
04/02/2020,20:17,37.235,37.35,37.15,37.15, 17827
04/02/2020,20:18,37.19,37.22,37.04,37.04, 7917
04/02/2020,20:19,37.1,37.24,37.1,37.14, 5905
04/02/2020,20:20,37.11,37.31,37.11,37.16, 7400
04/02/2020,20:21,37.17,37.21,37.02,37.055, 11527
04/02/2020,20:22,37.05,37.13,36.99,37.12, 14442
04/02/2020,20:23,37.13,37.22,36.97,37.1, 17728
04/02/2020,20:24,37.14,37.39,37.14,37.39, 7265
04/02/2020,20:25,37.333,37.39,37.13,37.13, 11851
04/02/2020,20:26,37.19,37.37,37.14,37.345, 7378
04/02/2020,20:27,37.36,37.5,37.31,37.475, 10390
04/02/2020,20:28,37.517,37.6,37.37,37.515, 15790
04/02/2020,20:29,37.56,37.82,37.48,37.76, 22597
04/02/2020,20:30,37.71,37.83,37.63,37.79, 50520
04/02/2020,20:31,37.83,37.91,37.565,37.635, 13596
04/02/2020,20:32,37.635,37.71,37.56,37.6, 5558
04/02/2020,20:33,37.58,37.63,37.48,37.595, 9754
04/02/2020,20:34,37.6,37.87,37.57,37.73, 11525
04/02/2020,20:35,37.775,37.85,37.65,37.735, 5520
04/02/2020,20:36,37.74,37.78,37.531,37.63, 11511
04/02/2020,20:37,37.66,37.74,37.655,37.73, 6869
04/02/2020,20:38,37.74,37.9,37.63,37.85, 7362
04/02/2020,20:39,37.88,37.97,37.76,37.835, 10991
04/02/2020,20:40,37.87,37.915,37.75,37.75, 4810
04/02/2020,20:41,37.77,37.82,37.68,37.68, 16559
04/02/2020,20:42,37.69,37.75,37.61,37.64, 9350
04/02/2020,20:43,37.635,37.77,37.56,37.77, 33100
04/02/2020,20:44,37.77,37.91,37.73,37.905, 6885
04/02/2020,20:45,37.91,38.03,37.82,37.99, 8819
04/02/2020,20:46,38.05,38.07,37.93,37.96, 9175
04/02/2020,20:47,37.94,37.965,37.83,37.89, 8459
04/02/2020,20:48,37.87,37.96,37.85,37.9, 9632
04/02/2020,20:49,37.95,38.07,37.91,38.02, 5113
04/02/2020,20:50,38.03,38.05,37.85,37.87, 7798
04/02/2020,20:51,37.91,38.1,37.81,37.94, 27986
04/02/2020,20:52,37.95,38.015,37.86,37.97, 7458
04/02/2020,20:53,37.97,38.005,37.72,38.005, 25279
04/02/2020,20:54,38.02,38.1,37.96,38.09, 11257
04/02/2020,20:55,38.1,38.34,38.05,38.265, 12575
04/02/2020,20:56,38.262,38.262,38.11,38.11, 14009
04/02/2020,20:57,38.14,38.17,38.07,38.165, 13178
04/02/2020,20:58,38.14,38.21,38.1,38.15, 13310
04/02/2020,20:59,38.12,38.19,38,38.14, 11991
04/02/2020,21:00,38.16,38.21,38.116,38.15, 28633
04/02/2020,21:01,38.16,38.205,38.11,38.15, 46902
04/02/2020,21:02,38.13,38.23,37.947,37.947, 100617
04/02/2020,21:03,37.93,37.98,37.8,37.815, 17232
04/02/2020,21:04,37.8,37.955,37.77,37.77, 15895
04/02/2020,21:05,37.8,37.955,37.73,37.87, 11519
04/02/2020,21:06,37.88,38.02,37.86,37.88, 7988
04/02/2020,21:07,37.88,37.92,37.79,37.89, 14643
04/02/2020,21:08,37.94,37.985,37.85,37.87, 9910
04/02/2020,21:09,37.87,37.9,37.82,37.88, 8421
04/02/2020,21:10,37.885,38.025,37.885,38.02, 12539
04/02/2020,21:11,38.015,38.05,37.98,38.02, 10672
04/02/2020,21:12,38.04,38.09,37.96,38.025, 10367
04/02/2020,21:13,38.04,38.085,37.995,37.995, 9640
04/02/2020,21:14,38,38.024,37.935,37.97, 7793
04/02/2020,21:15,37.99,38.065,37.9,37.92, 25377
04/02/2020,21:16,37.925,38.05,37.89,38.04, 9199
04/02/2020,21:17,38.035,38.08,37.88,37.97, 11010
04/02/2020,21:18,38,38.08,37.95,37.98, 13091
04/02/2020,21:19,37.96,38,37.9,37.91, 5600
04/02/2020,21:20,37.92,38.06,37.9,38.06, 8673
04/02/2020,21:21,38.1,38.265,38.09,38.22, 15670
04/02/2020,21:22,38.22,38.39,38.2,38.34, 14795
04/02/2020,21:23,38.36,38.48,38.35,38.42, 10951
04/02/2020,21:24,38.425,38.516,38.4,38.46, 11793
04/02/2020,21:25,38.45,38.52,38.43,38.5, 17219
04/02/2020,21:26,38.5,38.53,38.46,38.48, 14467
04/02/2020,21:27,38.47,38.505,38.45,38.45, 13609
04/02/2020,21:28,38.45,38.5,38.44,38.465, 16211
04/02/2020,21:29,38.45,38.48,38.41,38.445, 16579
04/02/2020,21:30,38.43,38.48,38.37,38.46, 26830
04/02/2020,21:31,38.47,38.52,38.44,38.5, 26690
04/02/2020,21:32,38.5,38.5,38.21,38.24, 25260
04/02/2020,21:33,38.23,38.3,38.17,38.25, 30848
04/02/2020,21:34,38.255,38.365,38.25,38.365, 11830
04/02/2020,21:35,38.37,38.48,38.34,38.39, 29513
04/02/2020,21:36,38.39,38.39,38.24,38.31, 15895
04/02/2020,21:37,38.33,38.5,38.33,38.5, 17282
04/02/2020,21:38,38.5,38.508,38.39,38.42, 19660
04/02/2020,21:39,38.4,38.4,38.36,38.4, 20773
04/02/2020,21:40,38.4,38.61,38.4,38.565, 31146
04/02/2020,21:41,38.557,38.625,38.47,38.625, 19268
04/02/2020,21:42,38.65,38.68,38.6,38.625, 30696
04/02/2020,21:43,38.64,38.75,38.59,38.73, 38373
04/02/2020,21:44,38.73,38.73,38.49,38.62, 43822
04/02/2020,21:45,38.6,38.81,38.59,38.77, 91504
04/02/2020,21:46,38.79,38.905,38.79,38.885, 33033
04/02/2020,21:47,38.9,38.905,38.74,38.83, 34698
04/02/2020,21:48,38.84,38.855,38.68,38.83, 35384
04/02/2020,21:49,38.83,38.85,38.65,38.78, 35648
04/02/2020,21:50,38.765,38.838,38.58,38.66, 28907
04/02/2020,21:51,38.65,39.06,38.625,39.06, 29762
04/02/2020,21:51,39.01,39.2,38.835,38.96, 90426
04/02/2020,21:51,38.91,39.04,38.75,38.94, 67390
04/02/2020,21:52,38.945,38.955,38.84,38.92, 60121
04/02/2020,21:53,38.92,38.99,38.865,38.92, 47622
04/02/2020,21:54,38.92,38.95,38.87,38.91, 57665
04/02/2020,21:54,38.925,38.99,38.785,38.99, 55124
04/02/2020,21:55,38.97,39.03,38.88,38.995, 63660
04/02/2020,21:56,38.99,38.99,38.83,38.89, 67222
04/02/2020,21:56,38.89,38.92,38.86,38.88, 52400
04/02/2020,21:57,38.89,38.92,38.82,38.85, 103654
04/02/2020,21:58,38.85,38.92,38.775,38.895, 89280
04/02/2020,21:59,38.895,38.92,38.88,38.89, 84655
04/02/2020,21:59,38.89,38.91,38.88,38.885, 95113
04/02/2020,22:00,38.88,38.93,38.83,38.875, 94232
04/02/2020,22:00,38.88,38.93,38.82,38.9, 84383
04/02/2020,22:01,38.9,38.98,38.24,38.3, 345840
04/02/2020,22:03,38.3,38.3,38.3,38.3, 692316
04/03/2020,15:31,40,40.475,39.94,40.335, 204497
04/03/2020,15:31,40.4,40.5,39.94,40.32, 25495
04/03/2020,15:32,40.31,40.76,39.81,40.71, 33630
04/03/2020,15:33,40.67,40.777,40.24,40.29, 44464
04/03/2020,15:34,40.3,40.52,40.06,40.12, 23440
04/03/2020,15:35,40.2,40.22,39.9,40.198, 28890
04/03/2020,15:36,40.2,40.34,40.01,40.07, 22621
04/03/2020,15:37,40.12,40.29,39.76,39.76, 29447
04/03/2020,15:38,39.89,39.986,39.51,39.72, 31908
04/03/2020,15:38,39.76,39.88,39.52,39.57, 34984
04/03/2020,15:39,39.6,39.62,39.34,39.385, 22193
04/03/2020,15:40,39.35,39.56,39.28,39.42, 20871
04/03/2020,15:41,39.43,39.54,39.33,39.505, 11472
04/03/2020,15:42,39.41,39.74,39.41,39.725, 66040
04/03/2020,15:43,39.77,40,39.73,39.903, 34002
04/03/2020,15:44,39.89,39.95,39.775,39.86, 45559
04/03/2020,15:45,39.95,39.99,39.75,39.765, 21255
04/03/2020,15:46,39.765,39.93,39.74,39.81, 35117
04/03/2020,15:47,39.72,39.76,39.47,39.68, 38532
04/03/2020,15:47,39.68,39.81,39.67,39.74, 22713
04/03/2020,15:48,39.76,39.8,39.565,39.67, 38464
04/03/2020,15:49,39.69,39.74,39.52,39.74, 11696
04/03/2020,15:50,39.735,39.76,39.48,39.51, 28274
04/03/2020,15:51,39.5,39.63,39.385,39.46, 22815
04/03/2020,15:52,39.43,39.73,39.43,39.59, 19212
04/03/2020,15:52,39.6,39.66,39.54,39.64, 11185
04/03/2020,15:53,39.64,39.66,39.29,39.31, 18330
04/03/2020,15:54,39.31,39.37,39.03,39.05, 14922
04/03/2020,15:55,39.09,39.16,38.92,39.095, 20341
04/03/2020,15:56,39.15,39.25,38.8,39.005, 29098
04/03/2020,15:56,39.005,39.34,39.005,39.2, 8326
04/03/2020,15:57,39.25,39.38,39.17,39.38, 18317
04/03/2020,15:58,39.4,39.4,39.07,39.21, 29944
04/03/2020,15:59,39.25,39.43,39.23,39.34, 10857
04/03/2020,16:00,39.29,39.35,39.24,39.3, 18501
04/03/2020,16:01,39.3,39.47,39.25,39.41, 8967
04/03/2020,16:02,39.46,39.49,39.32,39.465, 11510
04/03/2020,16:03,39.47,39.6,39.33,39.505, 20008
04/03/2020,16:04,39.55,39.62,39.36,39.37, 20168
04/03/2020,16:05,39.38,39.425,39.19,39.23, 28302
04/03/2020,16:06,39.26,39.47,39.22,39.375, 21450
04/03/2020,16:07,39.375,39.42,39.25,39.3, 11677
04/03/2020,16:08,39.27,39.37,39.25,39.32, 10318
04/03/2020,16:08,39.325,39.47,39.23,39.275, 22648
04/03/2020,16:09,39.25,39.56,39.24,39.46, 12372
04/03/2020,16:10,39.49,39.49,39.25,39.405, 10805
04/03/2020,16:11,39.35,39.53,39.29,39.455, 19518
04/03/2020,16:12,39.43,39.44,39.25,39.34, 10991
04/03/2020,16:13,39.29,39.5,39.27,39.41, 12040
04/03/2020,16:14,39.41,39.555,39.41,39.445, 13279
04/03/2020,16:15,39.445,39.51,39.29,39.35, 17383
04/03/2020,16:16,39.31,39.35,39.15,39.26, 25660
04/03/2020,16:17,39.26,39.35,39.22,39.24, 9621
04/03/2020,16:18,39.24,39.302,39.06,39.06, 21235
04/03/2020,16:19,39.05,39.32,39,39.2, 37140
04/03/2020,16:20,39.18,39.27,39.035,39.035, 25877
04/03/2020,16:21,39,39.03,38.81,38.86, 19781
04/03/2020,16:21,38.835,39.1,38.82,38.9, 26679
04/03/2020,16:22,38.92,39.19,38.9,39.05, 30713
04/03/2020,16:23,39.05,39.09,38.91,39.045, 8806
04/03/2020,16:24,39.01,39.24,38.94,39.09, 41516
04/03/2020,16:25,39.09,39.17,38.95,39.1, 22197
04/03/2020,16:26,39.09,39.25,39.07,39.09, 12359
04/03/2020,16:27,39.14,39.15,38.98,39.07, 15853
04/03/2020,16:28,39.1,39.3,39.07,39.16, 18933
04/03/2020,16:29,39.22,39.35,39.05,39.31, 26583
04/03/2020,16:30,39.28,39.33,39.2,39.21, 30713
04/03/2020,16:31,39.23,39.34,39.16,39.22, 28437
04/03/2020,16:32,39.15,39.26,39.06,39.08, 33743
04/03/2020,16:33,39.06,39.11,38.93,39.03, 37895
04/03/2020,16:34,39.05,39.22,38.95,39.08, 166750
04/03/2020,16:35,39.08,39.27,39,39.27, 52392
04/03/2020,16:36,39.28,39.33,38.99,39.16, 44829
04/03/2020,16:36,39.13,39.265,38.92,39, 19618
04/03/2020,16:37,39.03,39.076,38.78,38.85, 20615
04/03/2020,16:38,38.85,38.89,38.81,38.81, 6872
04/03/2020,16:39,38.84,38.86,38.8,38.8, 10166
04/03/2020,16:39,38.805,38.805,38.51,38.55, 8371
04/03/2020,16:40,38.515,38.59,38.43,38.56, 13286
04/03/2020,16:40,38.51,38.64,38.46,38.61, 12405
04/03/2020,16:41,38.6,38.86,38.6,38.8, 6081
04/03/2020,16:42,38.8,38.86,38.68,38.71, 23268
04/03/2020,16:43,38.69,38.97,38.67,38.91, 38825
04/03/2020,16:44,38.94,38.98,38.67,38.775, 12109
04/03/2020,16:45,38.74,39.06,38.74,38.89, 14613
04/03/2020,16:46,38.925,38.94,38.74,38.74, 6860
04/03/2020,16:47,38.77,38.93,38.71,38.905, 16787
04/03/2020,16:48,38.905,39.15,38.84,39.065, 12046
04/03/2020,16:49,39.045,39.26,38.97,39.15, 32095
04/03/2020,16:51,39.17,39.33,39.15,39.235, 9811
04/03/2020,16:52,39.2,39.5,39.15,39.29, 18573
04/03/2020,16:53,39.33,39.39,39.21,39.36, 29983
04/03/2020,16:54,39.29,39.44,39.2,39.41, 39525
04/03/2020,16:54,39.39,39.53,39.26,39.35, 10655
04/03/2020,16:56,39.26,39.3,39.08,39.29, 12011
04/03/2020,16:57,39.26,39.45,39.25,39.36, 8957
04/03/2020,16:58,39.31,39.5,39.23,39.5, 68019
04/03/2020,16:59,39.5,39.63,39.438,39.438, 13638
04/03/2020,17:01,39.48,39.75,39.4,39.72, 14677
04/03/2020,17:02,39.77,39.92,39.703,39.885, 275942
04/03/2020,17:03,39.91,39.91,39.57,39.68, 10671
04/03/2020,17:04,39.68,39.72,39.55,39.64, 10998
04/03/2020,17:05,39.645,39.88,39.63,39.81, 8697
04/03/2020,17:06,39.83,39.88,39.66,39.85, 32044
04/03/2020,17:08,39.86,39.95,39.79,39.85, 51948
04/03/2020,17:09,39.83,40,39.78,39.98, 19968
04/03/2020,17:10,40.01,40.1,39.8,39.925, 19289
04/03/2020,17:11,39.945,40.04,39.88,40.02, 9365
04/03/2020,17:12,40,40.2,39.99,39.99, 13317
04/03/2020,17:14,40,40.08,39.79,39.875, 14810
04/03/2020,17:15,39.9,39.985,39.816,39.965, 10849
04/03/2020,17:15,39.97,40.07,39.93,39.93, 10617
04/03/2020,17:16,39.969,40.15,39.9,40.13, 13787
04/03/2020,17:17,40.06,40.115,39.92,39.98, 4557
04/03/2020,17:18,39.98,40.09,39.91,40.065, 15079
04/03/2020,17:19,40.05,40.05,39.91,40.03, 8079
04/03/2020,17:20,40.03,40.07,39.93,40, 19914
04/03/2020,17:22,40.06,40.165,39.98,40, 39226
04/03/2020,17:23,40,40.17,39.99,40.06, 27708
04/03/2020,17:24,40.07,40.17,39.98,40.064, 25926
04/03/2020,17:25,40.08,40.09,39.81,39.83, 89714
04/03/2020,17:27,39.87,40.09,39.83,40.01, 33786
04/03/2020,17:29,40.01,40.13,39.93,40.01, 260165
04/03/2020,17:30,40,40.051,39.78,40.051, 292697
04/03/2020,17:31,40.005,40.05,39.95,40, 15740
04/03/2020,17:33,40.015,40.05,39.73,39.82, 31897
04/03/2020,17:34,39.845,40.14,39.845,40.1, 66525
04/03/2020,17:36,40.1,40.23,39.95,40.16, 32210
04/03/2020,17:38,40.14,40.3,40.04,40.125, 28391
04/03/2020,17:40,40.15,40.28,40.15,40.23, 18827
04/03/2020,17:41,40.255,40.33,40.15,40.23, 22488
04/03/2020,17:42,40.24,40.33,40.08,40.17, 14153
04/03/2020,17:43,40.16,40.28,40.11,40.27, 19321
04/03/2020,17:44,40.24,40.32,40.12,40.21, 22934
04/03/2020,17:45,40.19,40.24,40.13,40.18, 12957
04/03/2020,17:46,40.15,40.175,39.98,40.06, 23833
04/03/2020,17:47,40.09,40.11,39.97,40, 24065
04/03/2020,17:48,40.03,40.2,39.97,40.17, 18292
04/03/2020,17:49,40.17,40.2,40.042,40.075, 13239
04/03/2020,17:50,40.08,40.09,39.985,40.065, 14688
04/03/2020,17:51,40.07,40.16,40.06,40.13, 16806
04/03/2020,17:52,40.11,40.16,40.07,40.085, 5150
04/03/2020,17:53,40.09,40.305,40.09,40.29, 16362
04/03/2020,17:54,40.285,40.38,40.25,40.33, 14352
04/03/2020,17:55,40.32,40.45,40.241,40.415, 25848
04/03/2020,17:56,40.39,40.45,40.335,40.42, 20672
04/03/2020,17:57,40.44,40.525,40.35,40.48, 36202
04/03/2020,17:58,40.482,40.64,40.42,40.5, 33263
04/03/2020,17:59,40.475,40.53,40.42,40.42, 14122
04/03/2020,18:00,40.42,40.59,40.375,40.5, 18942
04/03/2020,18:01,40.5,40.561,40.48,40.54, 10437
04/03/2020,18:02,40.54,40.57,40.47,40.52, 12118
04/03/2020,18:03,40.51,40.54,40.48,40.51, 12752
04/03/2020,18:04,40.5,40.53,40.46,40.53, 19017
04/03/2020,18:05,40.51,40.54,40.47,40.52, 25870
04/03/2020,18:06,40.515,40.67,40.48,40.5, 16052
04/03/2020,18:07,40.5,40.54,40.43,40.43, 18536
04/03/2020,18:08,40.4,40.54,40.18,40.5, 46734
04/03/2020,18:09,40.51,40.52,40.19,40.23, 25921
04/03/2020,18:10,40.21,40.52,40.15,40.49, 38449
04/03/2020,18:11,40.5,40.6,40.41,40.51, 14181
04/03/2020,18:12,40.5,40.65,40.46,40.53, 16078
04/03/2020,18:13,40.53,40.56,40.34,40.38, 25297
04/03/2020,18:14,40.35,40.435,40.35,40.425, 20947
04/03/2020,18:15,40.44,40.46,40.15,40.16, 34042
04/03/2020,18:16,40.16,40.32,40.08,40.27, 32753
04/03/2020,18:17,40.28,40.33,40.215,40.31, 10647
04/03/2020,18:18,40.23,40.3,40.08,40.13, 9966
04/03/2020,18:19,40.105,40.25,40.05,40.23, 61851
04/03/2020,18:20,40.235,40.235,40.02,40.075, 38454
04/03/2020,18:21,40.07,40.185,40,40.07, 44041
04/03/2020,18:22,40.09,40.18,40,40.18, 32016
04/03/2020,18:23,40.17,40.22,40.07,40.2, 9834
04/03/2020,18:24,40.17,40.32,40.15,40.28, 7918
04/03/2020,18:25,40.27,40.32,40.074,40.14, 12737
04/03/2020,18:26,40.12,40.2,40.06,40.06, 15723
04/03/2020,18:27,40.03,40.19,40.03,40.045, 9400
04/03/2020,18:28,40.04,40.04,39.79,39.905, 63161
04/03/2020,18:29,39.92,40.03,39.828,40.03, 28452
04/03/2020,18:30,39.99,40.005,39.81,39.85, 10365
04/03/2020,18:31,39.87,40.21,39.82,40.18, 20494
04/03/2020,18:32,40.225,40.5,40.11,40.16, 41108
04/03/2020,18:33,40.23,40.26,39.92,39.97, 16241
04/03/2020,18:34,39.97,40.07,39.88,40, 10745
04/03/2020,18:35,40.02,40.04,39.87,39.945, 9253
04/03/2020,18:36,39.98,40.16,39.98,40.02, 11383
04/03/2020,18:37,40,40.17,40,40.095, 31746
04/03/2020,18:38,40.11,40.12,39.96,39.96, 9850
04/03/2020,18:39,39.96,40.22,39.96,40.04, 37067
04/03/2020,18:40,40.05,40.39,40.05,40.35, 17007
04/03/2020,18:41,40.32,40.52,40.28,40.41, 19568
04/03/2020,18:42,40.355,40.42,40.29,40.29, 10494
04/03/2020,18:43,40.31,40.38,40.3,40.3, 8728
04/03/2020,18:44,40.33,40.51,40.31,40.44, 7490
04/03/2020,18:45,40.46,40.52,40.4,40.455, 18678
04/03/2020,18:46,40.45,40.53,40.26,40.39, 31410
04/03/2020,18:47,40.36,40.45,40.33,40.33, 8450
04/03/2020,18:48,40.35,40.435,40.26,40.31, 12475
04/03/2020,18:49,40.24,40.44,40.12,40.32, 17714
04/03/2020,18:50,40.36,40.51,40.3,40.369, 87926
04/03/2020,18:51,40.36,40.385,40.25,40.3, 10194
04/03/2020,18:52,40.307,40.38,40.25,40.27, 8800
04/03/2020,18:53,40.25,40.39,40.25,40.36, 8487
04/03/2020,18:54,40.35,40.39,40.235,40.37, 7956
04/03/2020,18:55,40.37,40.5,40.35,40.5, 7843
04/03/2020,18:56,40.49,40.6,40.455,40.6, 2814
04/03/2020,18:57,40.6,40.72,40.58,40.63, 3708
04/03/2020,18:58,40.645,40.73,40.57,40.65, 3899
04/03/2020,18:59,40.63,40.67,40.58,40.63, 3592
04/03/2020,19:00,40.65,40.68,40.53,40.555, 115353
04/03/2020,19:01,40.555,40.555,40.44,40.513, 11959
04/03/2020,19:02,40.5,40.58,40.44,40.58, 6292
04/03/2020,19:03,40.64,40.64,40.49,40.49, 264289
04/03/2020,19:04,40.49,40.56,40.47,40.485, 8870
04/03/2020,19:05,40.485,40.58,40.485,40.54, 12259
04/03/2020,19:06,40.555,40.85,40.555,40.82, 7432
04/03/2020,19:07,40.84,40.9,40.81,40.845, 5024
04/03/2020,19:08,40.88,40.95,40.86,40.92, 4969
04/03/2020,19:09,40.89,40.91,40.79,40.84, 36959
04/03/2020,19:10,40.84,40.85,40.7,40.7, 7679
04/03/2020,19:11,40.69,40.875,40.69,40.875, 8380
04/03/2020,19:12,40.89,40.93,40.81,40.81, 6773
04/03/2020,19:13,40.81,40.81,40.72,40.76, 6701
04/03/2020,19:14,40.73,40.74,40.64,40.65, 12779
04/03/2020,19:15,40.64,40.735,40.62,40.63, 4362
04/03/2020,19:16,40.66,40.69,40.55,40.66, 10785
04/03/2020,19:17,40.68,40.833,40.63,40.8, 8394
04/03/2020,19:18,40.798,40.83,40.7,40.75, 6312
04/03/2020,19:19,40.795,40.8,40.7,40.78, 5171
04/03/2020,19:20,40.8,40.87,40.76,40.87, 5239
04/03/2020,19:21,40.89,40.98,40.87,40.9, 7047
04/03/2020,19:22,40.905,40.92,40.87,40.9, 7176
04/03/2020,19:23,40.905,40.95,40.88,40.925, 7630
04/03/2020,19:24,40.925,41,40.925,40.957, 18805
04/03/2020,19:25,40.98,41.07,40.8,40.85, 33118
04/03/2020,19:25,40.85,40.886,40.81,40.83, 7900
04/03/2020,19:27,40.84,40.855,40.68,40.68, 10414
04/03/2020,19:28,40.68,40.713,40.54,40.54, 19299
04/03/2020,19:29,40.545,40.61,40.49,40.49, 4793
04/03/2020,19:30,40.505,40.61,40.44,40.56, 17137
04/03/2020,19:31,40.58,40.605,40.51,40.53, 2200
04/03/2020,19:32,40.5,40.54,40.47,40.475, 3620
04/03/2020,19:33,40.495,40.57,40.49,40.5, 11217
04/03/2020,19:34,40.49,40.53,40.41,40.44, 9678
04/03/2020,19:35,40.41,40.41,40.28,40.36, 8690
04/03/2020,19:36,40.365,40.39,40.18,40.22, 19527
04/03/2020,19:37,40.22,40.385,40.22,40.35, 8237
04/03/2020,19:38,40.34,40.385,40.3,40.35, 5757
04/03/2020,19:39,40.33,40.33,40.21,40.22, 3200
04/03/2020,19:40,40.22,40.36,40.19,40.34, 36571
04/03/2020,19:41,40.32,40.36,40.18,40.25, 31400
04/03/2020,19:42,40.215,40.215,40.15,40.18, 6741
04/03/2020,19:43,40.2,40.32,40.16,40.185, 33693
04/03/2020,19:44,40.18,40.22,40.16,40.19, 8797
04/03/2020,19:45,40.19,40.43,40.19,40.325, 13085
04/03/2020,19:46,40.32,40.35,40.25,40.27, 39141
04/03/2020,19:47,40.31,40.32,40.25,40.265, 31487
04/03/2020,19:48,40.26,40.31,40.19,40.19, 11952
04/03/2020,19:49,40.185,40.35,40.16,40.255, 57268
04/03/2020,19:50,40.25,40.27,40.125,40.17, 25443
04/03/2020,19:51,40.155,40.22,40.13,40.2, 13576
04/03/2020,19:52,40.19,40.19,40.01,40.13, 13097
04/03/2020,19:53,40.09,40.115,39.97,40.02, 426359
04/03/2020,19:54,40.01,40.05,39.81,39.925, 18392
04/03/2020,19:55,39.96,40.02,39.92,40.02, 4236
04/03/2020,19:56,40.02,40.237,39.93,39.985, 159948
04/03/2020,19:57,39.98,40.03,39.84,39.84, 209616
04/03/2020,19:58,39.857,39.93,39.82,39.915, 4375
04/03/2020,19:59,39.9,39.955,39.88,39.915, 5398
04/03/2020,20:00,39.94,40.065,39.93,40.065, 131377
04/03/2020,20:01,40.06,40.167,40,40.05, 29336
04/03/2020,20:02,40.04,40.24,40.04,40.24, 98839
04/03/2020,20:03,40.239,40.4,40.215,40.4, 44998
04/03/2020,20:04,40.38,40.4,40.345,40.35, 12285
04/03/2020,20:05,40.34,40.38,40.32,40.38, 5367
04/03/2020,20:06,40.38,40.45,40.36,40.42, 7568
04/03/2020,20:07,40.46,40.49,40.41,40.42, 15446
04/03/2020,20:08,40.46,40.49,40.44,40.48, 5665
04/03/2020,20:09,40.49,40.59,40.46,40.58, 13907
04/03/2020,20:10,40.6,40.81,40.59,40.78, 15512
04/03/2020,20:11,40.77,40.9,40.77,40.854, 12722
04/03/2020,20:12,40.83,40.84,40.76,40.81, 7611
04/03/2020,20:13,40.825,40.87,40.8,40.815, 8734
04/03/2020,20:14,40.83,40.855,40.7,40.74, 9791
04/03/2020,20:15,40.72,40.77,40.72,40.73, 8760
04/03/2020,20:16,40.745,40.83,40.74,40.76, 6809
04/03/2020,20:17,40.75,40.76,40.62,40.62, 13861
04/03/2020,20:18,40.66,40.77,40.63,40.75, 7411
04/03/2020,20:19,40.77,40.95,40.77,40.89, 24908
04/03/2020,20:20,40.88,40.935,40.82,40.82, 7913
04/03/2020,20:21,40.85,40.92,40.79,40.88, 5382
04/03/2020,20:22,40.875,41,40.82,40.85, 77808
04/03/2020,20:23,40.9,40.93,40.8,40.8, 42485
04/03/2020,20:24,40.8,40.9,40.78,40.81, 32884
04/03/2020,20:25,40.81,40.92,40.81,40.895, 16897
04/03/2020,20:26,40.9,41.04,40.89,40.94, 64667
04/03/2020,20:27,40.95,41.015,40.945,40.97, 3493
04/03/2020,20:28,40.96,41.02,40.93,40.94, 7037
04/03/2020,20:29,40.93,41.16,40.93,41.11, 25140
04/03/2020,20:30,41.11,41.14,40.95,40.98, 39893
04/03/2020,20:31,40.99,41.09,40.96,41.09, 12713
04/03/2020,20:32,41.1,41.135,41.07,41.12, 15098
04/03/2020,20:33,41.1,41.1,40.97,40.97, 20372
04/03/2020,20:34,40.96,41.04,40.94,40.96, 9663
04/03/2020,20:35,40.98,40.98,40.875,40.875, 17906
04/03/2020,20:36,40.875,41.115,40.85,41.09, 8531
04/03/2020,20:37,41.055,41.11,40.97,40.98, 10213
04/03/2020,20:38,40.95,41.05,40.92,40.981, 8775
04/03/2020,20:39,41,41.03,40.94,40.95, 10522
04/03/2020,20:40,40.97,40.99,40.88,40.9, 13487
04/03/2020,20:41,40.91,40.97,40.89,40.96, 8928
04/03/2020,20:42,40.965,41.07,40.95,41.04, 7639
04/03/2020,20:43,41.05,41.162,40.98,41.155, 13700
04/03/2020,20:44,41.15,41.15,41.06,41.06, 15687
04/03/2020,20:45,41.065,41.12,41.05,41.05, 9227
04/03/2020,20:46,41.04,41.04,40.965,41, 11837
04/03/2020,20:47,41,41,40.935,40.98, 9531
04/03/2020,20:48,40.98,41.055,40.92,40.99, 21417
04/03/2020,20:49,41.037,41.08,41.03,41.07, 7410
04/03/2020,20:50,41.05,41.07,41.03,41.03, 19208
04/03/2020,20:51,41.04,41.045,40.94,41, 43468
04/03/2020,20:52,41.03,41.07,40.99,41.04, 14486
04/03/2020,20:53,41.06,41.29,41.06,41.17, 22993
04/03/2020,20:54,41.15,41.21,41.02,41.04, 12406
04/03/2020,20:55,41.02,41.13,41.02,41.077, 10330
04/03/2020,20:56,41.06,41.07,40.93,41.01, 23810
04/03/2020,20:57,41,41.02,40.95,40.95, 21612
04/03/2020,20:58,40.975,41.02,40.91,41.005, 6846
04/03/2020,20:59,40.99,41.13,40.96,40.97, 21241
04/03/2020,21:00,40.97,40.97,40.85,40.88, 12485
04/03/2020,21:01,40.9,40.91,40.809,40.86, 16103
04/03/2020,21:02,40.84,40.91,40.775,40.9, 19089
04/03/2020,21:03,40.9,40.94,40.85,40.85, 21769
04/03/2020,21:04,40.89,40.915,40.68,40.69, 17229
04/03/2020,21:05,40.66,40.79,40.655,40.75, 14864
04/03/2020,21:06,40.77,40.77,40.64,40.68, 29197
04/03/2020,21:07,40.65,40.66,40.52,40.55, 8046
04/03/2020,21:08,40.545,40.6,40.545,40.6, 9680
04/03/2020,21:09,40.6,40.615,40.56,40.57, 24295
04/03/2020,21:10,40.55,40.7,40.54,40.68, 17133
04/03/2020,21:11,40.7,40.93,40.7,40.813, 12761
04/03/2020,21:12,40.798,40.82,40.56,40.625, 28820
04/03/2020,21:13,40.64,40.655,40.56,40.56, 20329
04/03/2020,21:14,40.56,40.575,40.52,40.55, 7775
04/03/2020,21:15,40.56,40.62,40.54,40.56, 23032
04/03/2020,21:16,40.6,40.63,40.509,40.54, 13859
04/03/2020,21:17,40.56,40.64,40.56,40.61, 5858
04/03/2020,21:18,40.64,40.82,40.615,40.69, 12374
04/03/2020,21:19,40.69,40.75,40.6,40.695, 38784
04/03/2020,21:20,40.69,40.75,40.65,40.66, 50256
04/03/2020,21:21,40.65,40.65,40.51,40.57, 27462
04/03/2020,21:22,40.6,40.63,40.53,40.565, 31370
04/03/2020,21:23,40.59,40.615,40.45,40.45, 59829
04/03/2020,21:24,40.489,40.52,40.45,40.485, 18142
04/03/2020,21:25,40.47,40.5,40.39,40.42, 13910
04/03/2020,21:26,40.39,40.455,40.34,40.38, 13241
04/03/2020,21:27,40.38,40.51,40.37,40.46, 44085
04/03/2020,21:28,40.41,40.53,40.4,40.52, 8012
04/03/2020,21:29,40.53,40.555,40.455,40.52, 9100
04/03/2020,21:30,40.55,40.6,40.5,40.54, 16958
04/03/2020,21:31,40.53,40.54,40.415,40.48, 34170
04/03/2020,21:32,40.47,40.52,40.43,40.46, 48781
04/03/2020,21:33,40.46,40.46,40.32,40.34, 10869
04/03/2020,21:34,40.34,40.4,40.21,40.27, 24286
04/03/2020,21:35,40.255,40.33,40.21,40.225, 20315
04/03/2020,21:36,40.22,40.5,40.15,40.23, 443629
04/03/2020,21:37,40.22,40.22,40.12,40.17, 23857
04/03/2020,21:38,40.16,40.24,40.07,40.07, 30751
04/03/2020,21:39,40.07,40.085,39.92,39.972, 97426
04/03/2020,21:40,39.975,40.115,39.95,40.05, 34070
04/03/2020,21:41,40.06,40.07,39.855,39.855, 58916
04/03/2020,21:42,39.86,39.93,39.82,39.87, 25634
04/03/2020,21:43,39.85,39.85,39.785,39.81, 61774
04/03/2020,21:44,39.8,39.81,39.71,39.78, 49142
04/03/2020,21:45,39.78,39.795,39.53,39.55, 67196
04/03/2020,21:46,39.555,39.62,39.535,39.61, 26958
04/03/2020,21:47,39.62,39.76,39.53,39.7, 16568
04/03/2020,21:48,39.69,39.96,39.685,39.86, 53559
04/03/2020,21:49,39.84,40.19,39.81,40.18, 22696
04/03/2020,21:49,40.17,40.17,39.92,40.02, 51053
04/03/2020,21:50,40.04,40.06,39.905,39.97, 42150
04/03/2020,21:51,39.92,40.42,39.828,40.135, 30664
04/03/2020,21:51,40.155,40.325,40.13,40.31, 25860
04/03/2020,21:52,40.27,40.38,40.14,40.27, 47507
04/03/2020,21:53,40.27,40.39,40.25,40.325, 71962
04/03/2020,21:54,40.325,40.36,40.26,40.28, 55827
04/03/2020,21:54,40.27,40.33,40.25,40.29, 75048
04/03/2020,21:55,40.28,40.32,40.25,40.31, 31314
04/03/2020,21:56,40.32,40.39,40.25,40.29, 37912
04/03/2020,21:57,40.295,40.316,40.05,40.075, 147653
04/03/2020,21:57,40.075,40.28,40,40.05, 45574
04/03/2020,21:58,40.02,40.035,39.75,39.78, 85859
04/03/2020,21:59,39.79,39.85,39.66,39.75, 87617
04/03/2020,22:00,39.74,39.82,39.61,39.77, 98337
04/03/2020,22:00,39.74,39.88,39.74,39.82, 88864
04/03/2020,22:03,39.83,39.9,39.81,39.89, 457903
04/06/2020,15:31,40.68,40.94,40.51,40.625, 72267
04/06/2020,15:32,40.615,40.76,40.11,40.17, 22646
04/06/2020,15:32,40.11,40.29,39.655,39.875, 26640
04/06/2020,15:33,39.86,40.165,39.77,40.04, 9293
04/06/2020,15:34,40.03,40.26,39.979,40.04, 7309
04/06/2020,15:34,40.04,40.07,39.85,40.03, 17846
04/06/2020,15:35,40,40.1,39.89,39.966, 25358
04/06/2020,15:36,39.92,40.01,39.62,39.62, 11303
04/06/2020,15:37,39.62,39.846,39.62,39.795, 8615
04/06/2020,15:37,39.84,40.02,39.78,39.88, 20773
04/06/2020,15:38,39.84,39.88,39.72,39.83, 2202
04/06/2020,15:39,39.82,40.035,39.76,40.025, 11988
04/06/2020,15:40,40.02,40.04,39.91,40.01, 16083
04/06/2020,15:40,39.92,40.04,39.85,39.98, 31176
04/06/2020,15:41,39.94,40.06,39.94,40.002, 7220
04/06/2020,15:42,40,40.115,39.86,39.86, 7738
04/06/2020,15:42,39.92,39.96,39.85,39.9, 7110
04/06/2020,15:43,39.956,40.15,39.956,40.15, 1100
04/06/2020,15:44,40.19,40.255,40.13,40.255, 3656
04/06/2020,15:44,40.29,40.29,40.2,40.23, 3800
04/06/2020,15:45,40.22,40.33,40.22,40.29, 7688
04/06/2020,15:46,40.3,40.32,40.2,40.26, 6631
04/06/2020,15:47,40.31,40.455,40.3,40.323, 5350
04/06/2020,15:47,40.32,40.36,40.2,40.305, 21348
04/06/2020,15:48,40.2,40.355,40.2,40.28, 7230
04/06/2020,15:49,40.35,40.38,40.26,40.28, 7100
04/06/2020,15:49,40.31,40.36,40.22,40.25, 8188
04/06/2020,15:50,40.29,40.41,40.16,40.22, 11321
04/06/2020,15:51,40.2,40.29,40.16,40.25, 3227
04/06/2020,15:51,40.25,40.4,40.22,40.36, 13354
04/06/2020,15:52,40.39,40.42,40.28,40.36, 9844
04/06/2020,15:53,40.32,40.38,40.22,40.24, 5690
04/06/2020,15:53,40.22,40.27,40.141,40.22, 5958
04/06/2020,15:54,40.26,40.41,40.225,40.35, 4029
04/06/2020,15:55,40.4,40.45,40.3,40.4, 7702
04/06/2020,15:55,40.38,40.405,40.28,40.35, 2900
04/06/2020,15:56,40.33,40.33,40.22,40.25, 5015
04/06/2020,15:57,40.21,40.21,40.1,40.1, 4550
04/06/2020,15:58,40.12,40.13,39.91,39.96, 8716
04/06/2020,15:58,39.91,40.11,39.91,40.105, 10750
04/06/2020,15:59,40.14,40.17,40.035,40.035, 6200
04/06/2020,16:00,40,40.05,39.87,39.925, 14538
04/06/2020,16:01,39.97,39.97,39.85,39.93, 1600
04/06/2020,16:01,39.85,40.04,39.85,39.97, 11346
04/06/2020,16:02,40.03,40.12,39.98,40, 14757
04/06/2020,16:03,40.04,40.2,40.01,40.16, 5000
04/06/2020,16:04,40.16,40.23,40.11,40.115, 13067
04/06/2020,16:04,40.1,40.17,40,40.015, 4837
04/06/2020,16:05,40.01,40.012,39.97,40.005, 979
04/06/2020,16:06,40,40.02,39.85,39.94, 19690
04/06/2020,16:07,39.91,39.97,39.83,39.905, 41930
04/06/2020,16:07,39.915,40,39.89,39.96, 1874
04/06/2020,16:08,39.955,39.98,39.77,39.78, 5600
04/06/2020,16:09,39.77,39.835,39.71,39.712, 8812
04/06/2020,16:10,39.76,39.9,39.74,39.869, 7200
04/06/2020,16:11,39.793,39.793,39.65,39.75, 8676
04/06/2020,16:12,39.71,39.84,39.7,39.825, 20386
04/06/2020,16:12,39.81,39.87,39.775,39.8, 4017
04/06/2020,16:13,39.78,39.9,39.75,39.9, 3493
04/06/2020,16:14,39.93,39.94,39.74,39.74, 3476
04/06/2020,16:15,39.74,39.79,39.68,39.68, 7349
04/06/2020,16:16,39.66,39.805,39.66,39.8, 12181
04/06/2020,16:16,39.8,39.81,39.69,39.8, 5696
04/06/2020,16:17,39.8,39.9,39.79,39.89, 21409
04/06/2020,16:18,39.85,39.875,39.77,39.77, 4257
04/06/2020,16:19,39.77,39.8,39.69,39.74, 10610
04/06/2020,16:19,39.74,39.82,39.7,39.763, 9202
04/06/2020,16:20,39.76,39.84,39.68,39.8, 13729
04/06/2020,16:21,39.8,39.82,39.51,39.59, 33244
04/06/2020,16:22,39.62,39.63,39.41,39.41, 28654
04/06/2020,16:23,39.41,39.45,39.27,39.31, 14042
04/06/2020,16:24,39.28,39.3,39.14,39.14, 21354
04/06/2020,16:25,39.145,39.26,39.145,39.23, 236173
04/06/2020,16:25,39.245,39.37,39.215,39.31, 9558
04/06/2020,16:26,39.32,39.37,39.15,39.22, 251680
04/06/2020,16:27,39.16,39.2,38.96,38.96, 23765
04/06/2020,16:28,38.93,38.93,38.59,38.83, 22484
04/06/2020,16:29,38.84,38.84,38.61,38.613, 11277
04/06/2020,16:29,38.63,38.65,38.57,38.6, 10017
04/06/2020,16:30,38.6,38.61,38.3,38.35, 36590
04/06/2020,16:31,38.34,38.48,38.31,38.38, 26122
04/06/2020,16:32,38.34,38.365,38.13,38.2, 24296
04/06/2020,16:32,38.2,38.21,37.94,38.05, 24056
04/06/2020,16:33,38.03,38.05,37.855,37.96, 14259
04/06/2020,16:34,37.97,37.99,37.81,37.91, 10649
04/06/2020,16:35,37.93,38,37.91,37.98, 53093
04/06/2020,16:36,38,38.09,37.93,37.93, 32029
04/06/2020,16:36,37.935,38.05,37.93,37.98, 27083
04/06/2020,16:37,37.97,37.98,37.845,37.87, 17712
04/06/2020,16:38,37.845,37.89,37.66,37.862, 58490
04/06/2020,16:39,37.9,37.9,37.67,37.9, 19909
04/06/2020,16:40,37.9,38.15,37.88,38.105, 10921
04/06/2020,16:41,38.15,38.18,38.02,38.1, 18350
04/06/2020,16:42,38.05,38.106,37.9,38.1, 19518
04/06/2020,16:43,38.082,38.09,37.97,38.025, 8171
04/06/2020,16:44,38.05,38.37,38.05,38.3, 32514
04/06/2020,16:44,38.3,38.46,38.28,38.41, 11282
04/06/2020,16:46,38.4,38.61,38.38,38.58, 38665
04/06/2020,16:47,38.66,38.78,38.58,38.78, 10682
04/06/2020,16:48,38.77,38.77,38.64,38.76, 11636
04/06/2020,16:48,38.675,38.78,38.64,38.78, 4086
04/06/2020,16:50,38.765,38.909,38.685,38.89, 8471
04/06/2020,16:51,38.88,38.97,38.79,38.87, 15781
04/06/2020,16:51,38.77,38.89,38.75,38.795, 16699
04/06/2020,16:53,38.76,38.81,38.673,38.74, 7240
04/06/2020,16:53,38.72,38.72,38.67,38.685, 7546
04/06/2020,16:55,38.64,38.86,38.64,38.794, 9763
04/06/2020,16:56,38.8,38.86,38.8,38.84, 6563
04/06/2020,16:57,38.83,38.88,38.79,38.82, 6895
04/06/2020,16:57,38.81,38.84,38.75,38.78, 9470
04/06/2020,16:58,38.81,38.81,38.71,38.74, 57210
04/06/2020,16:59,38.71,38.74,38.67,38.705, 21871
04/06/2020,17:00,38.7,38.86,38.7,38.8, 29933
04/06/2020,17:01,38.81,38.93,38.78,38.91, 7400
04/06/2020,17:02,38.93,38.93,38.87,38.895, 6715
04/06/2020,17:03,38.91,38.94,38.87,38.88, 15749
04/06/2020,17:04,38.93,39.06,38.92,38.97, 25381
04/06/2020,17:06,38.95,38.97,38.87,38.94, 6225
04/06/2020,17:07,38.97,39.035,38.91,38.96, 15432
04/06/2020,17:08,38.95,38.97,38.9,38.958, 4000
04/06/2020,17:10,38.99,39.04,38.93,38.944, 15001
04/06/2020,17:11,38.93,38.94,38.82,38.91, 13018
04/06/2020,17:12,38.91,38.91,38.81,38.86, 9117
04/06/2020,17:14,38.88,38.9,38.79,38.81, 10547
04/06/2020,17:16,38.82,38.84,38.78,38.78, 37211
04/06/2020,17:17,38.795,38.89,38.765,38.86, 13267
04/06/2020,17:19,38.845,38.96,38.8,38.87, 9326
04/06/2020,17:20,38.88,38.89,38.78,38.78, 7278
04/06/2020,17:22,38.78,38.8,38.73,38.75, 8270
04/06/2020,17:23,38.77,38.89,38.77,38.82, 8785
04/06/2020,17:25,38.84,38.9,38.81,38.83, 6274
04/06/2020,17:26,38.82,38.86,38.78,38.815, 4750
04/06/2020,17:28,38.82,38.99,38.81,38.955, 6731
04/06/2020,17:29,38.93,39.01,38.87,38.985, 19659
04/06/2020,17:31,39,39,38.86,38.96, 17760
04/06/2020,17:31,38.96,39.02,38.92,39.02, 9229
04/06/2020,17:33,39.03,39.119,38.96,39.11, 16579
04/06/2020,17:35,39.08,39.2,39.059,39.11, 8419
04/06/2020,17:38,39.13,39.15,39.07,39.1, 13492
04/06/2020,17:39,39.09,39.12,39,39.01, 19803
04/06/2020,17:41,39.02,39.03,38.945,38.96, 26289
04/06/2020,17:43,38.943,39.01,38.89,38.96, 32126
04/06/2020,17:45,38.98,39.03,38.965,38.965, 34458
04/06/2020,17:47,38.97,39.06,38.93,39.03, 17578
04/06/2020,17:48,39.06,39.73,39.06,39.47, 62869
04/06/2020,17:50,39.431,39.75,39.39,39.5, 36919
04/06/2020,17:52,39.52,39.52,39.13,39.17, 29170
04/06/2020,17:54,39.19,39.27,39.1,39.12, 28946
04/06/2020,17:56,39.09,39.16,38.995,39.06, 41504
04/06/2020,17:58,39.1,39.1,38.995,39.01, 17733
04/06/2020,18:01,39.02,39.08,38.89,38.94, 35881
04/06/2020,18:02,38.89,38.949,38.72,38.84, 12548
04/06/2020,18:03,38.81,38.89,38.76,38.835, 10474
04/06/2020,18:04,38.84,38.94,38.84,38.89, 7744
04/06/2020,18:05,38.95,38.97,38.77,38.88, 31331
04/06/2020,18:06,38.87,38.97,38.87,38.97, 2100
04/06/2020,18:07,38.955,38.955,38.865,38.9, 6092
04/06/2020,18:08,38.89,38.92,38.85,38.92, 8862
04/06/2020,18:09,38.95,38.98,38.86,38.975, 20775
04/06/2020,18:10,38.97,39.005,38.95,38.96, 12635
04/06/2020,18:11,38.975,39.01,38.915,38.94, 9807
04/06/2020,18:12,38.935,39,38.91,38.96, 4635
04/06/2020,18:13,38.96,39.015,38.96,38.971, 18342
04/06/2020,18:14,38.96,39.07,38.96,39.06, 11776
04/06/2020,18:15,39.055,39.1,39,39.06, 46624
04/06/2020,18:16,39.05,39.09,39.01,39.01, 5883
04/06/2020,18:17,39.022,39.05,38.985,39, 4787
04/06/2020,18:18,38.97,39.02,38.93,39.02, 6164
04/06/2020,18:19,39.01,39.04,38.97,39.02, 5708
04/06/2020,18:20,39,39.014,38.949,39, 5914
04/06/2020,18:21,38.99,39.02,38.955,38.99, 3646
04/06/2020,18:22,39,39.03,38.99,38.99, 18762
04/06/2020,18:23,39,39.05,38.98,39.05, 10305
04/06/2020,18:24,39.05,39.05,39,39.02, 10714
04/06/2020,18:25,39.02,39.055,39,39.03, 12156
04/06/2020,18:26,39.02,39.1,39,39.1, 13659
04/06/2020,18:27,39.09,39.09,39.05,39.08, 7439
04/06/2020,18:28,39.08,39.09,39.045,39.06, 7769
04/06/2020,18:29,39.063,39.09,39.04,39.05, 7320
04/06/2020,18:30,39.05,39.072,39.03,39.065, 2626
04/06/2020,18:31,39.07,39.077,38.98,38.99, 7498
04/06/2020,18:32,39,39.05,38.97,39, 7223
04/06/2020,18:33,38.995,39.04,38.98,39.005, 8732
04/06/2020,18:34,39.005,39.02,38.96,38.975, 6946
04/06/2020,18:35,38.96,39.03,38.96,39.03, 6135
04/06/2020,18:36,39.03,39.097,39.03,39.045, 8314
04/06/2020,18:37,39.03,39.053,39.02,39.04, 5404
04/06/2020,18:38,39.03,39.07,38.995,39.07, 10958
04/06/2020,18:39,39.05,39.06,39.03,39.03, 5542
04/06/2020,18:40,39.04,39.06,38.98,38.99, 12476
04/06/2020,18:41,39,39.05,38.98,39, 3251
04/06/2020,18:42,39,39,38.96,38.96, 3087
04/06/2020,18:43,38.96,38.99,38.92,38.97, 8480
04/06/2020,18:44,38.94,38.995,38.93,38.995, 5077
04/06/2020,18:45,38.99,39.04,38.96,39.04, 6133
04/06/2020,18:46,39.03,39.087,39,39.06, 62619
04/06/2020,18:47,39.06,39.06,39.025,39.04, 10325
04/06/2020,18:48,39.04,39.06,39.01,39.025, 5200
04/06/2020,18:49,39.02,39.19,39.01,39.17, 11611
04/06/2020,18:50,39.14,39.228,39.11,39.11, 5587
04/06/2020,18:51,39.14,39.14,39.05,39.08, 5360
04/06/2020,18:52,39.06,39.13,39.05,39.06, 12103
04/06/2020,18:53,39.06,39.08,39.005,39.065, 14995
04/06/2020,18:54,39.065,39.112,39.065,39.07, 7401
04/06/2020,18:55,39.07,39.12,39.05,39.12, 5978
04/06/2020,18:56,39.129,39.16,39.09,39.16, 8514
04/06/2020,18:57,39.16,39.17,39.12,39.16, 6552
04/06/2020,18:58,39.16,39.16,39.086,39.1, 10107
04/06/2020,18:59,39.12,39.19,39.12,39.155, 11287
04/06/2020,19:00,39.16,39.18,39.12,39.145, 5861
04/06/2020,19:01,39.16,39.31,39.16,39.31, 7522
04/06/2020,19:02,39.3,39.3,39.23,39.275, 9570
04/06/2020,19:03,39.26,39.28,39.24,39.275, 4622
04/06/2020,19:04,39.265,39.28,39.17,39.22, 9693
04/06/2020,19:05,39.24,39.24,39.105,39.105, 5116
04/06/2020,19:06,39.1,39.17,39.08,39.15, 6063
04/06/2020,19:07,39.14,39.2,39.12,39.165, 3400
04/06/2020,19:08,39.18,39.18,39.11,39.16, 3088
04/06/2020,19:09,39.17,39.215,39.13,39.18, 8471
04/06/2020,19:10,39.16,39.175,39.16,39.175, 711
04/06/2020,19:11,39.19,39.19,39.09,39.14, 12020
04/06/2020,19:12,39.12,39.14,39.08,39.12, 5931
04/06/2020,19:13,39.11,39.16,39.1,39.16, 2315
04/06/2020,19:14,39.12,39.14,39.08,39.1, 2811
04/06/2020,19:15,39.08,39.11,39.02,39.06, 13228
04/06/2020,19:16,39.059,39.19,39.059,39.17, 8406
04/06/2020,19:17,39.155,39.18,39.095,39.1, 5846
04/06/2020,19:18,39.1,39.14,39.08,39.12, 6042
04/06/2020,19:19,39.1,39.21,39.06,39.21, 15715
04/06/2020,19:20,39.205,39.34,39.205,39.325, 17923
04/06/2020,19:21,39.34,39.41,39.32,39.41, 5413
04/06/2020,19:22,39.39,39.465,39.37,39.465, 6476
04/06/2020,19:23,39.45,39.5,39.36,39.46, 18025
04/06/2020,19:24,39.47,39.57,39.46,39.57, 7881
04/06/2020,19:25,39.57,39.62,39.53,39.565, 15860
04/06/2020,19:26,39.55,39.59,39.53,39.545, 7805
04/06/2020,19:27,39.52,39.62,39.52,39.62, 4326
04/06/2020,19:28,39.6,39.64,39.54,39.55, 5261
04/06/2020,19:29,39.54,39.55,39.445,39.475, 7432
04/06/2020,19:30,39.475,39.49,39.43,39.445, 9293
04/06/2020,19:31,39.48,39.48,39.36,39.4, 21856
04/06/2020,19:32,39.405,39.43,39.36,39.37, 15552
04/06/2020,19:33,39.38,39.39,39.36,39.36, 9079
04/06/2020,19:34,39.35,39.44,39.32,39.42, 96990
04/06/2020,19:35,39.38,39.49,39.38,39.44, 7080
04/06/2020,19:36,39.46,39.59,39.45,39.545, 4488
04/06/2020,19:37,39.545,39.56,39.51,39.53, 3744
04/06/2020,19:38,39.545,39.56,39.49,39.525, 4212
04/06/2020,19:39,39.525,39.68,39.525,39.64, 10437
04/06/2020,19:40,39.68,39.73,39.68,39.72, 8246
04/06/2020,19:41,39.72,39.75,39.69,39.75, 6888
04/06/2020,19:42,39.75,39.85,39.75,39.82, 9134
04/06/2020,19:43,39.8,39.83,39.77,39.83, 5932
04/06/2020,19:44,39.85,39.94,39.835,39.905, 10813
04/06/2020,19:45,39.89,39.92,39.88,39.89, 5151
04/06/2020,19:46,39.9,39.92,39.86,39.88, 18314
04/06/2020,19:47,39.9,39.93,39.88,39.92, 8616
04/06/2020,19:48,39.925,39.99,39.925,39.99, 7268
04/06/2020,19:49,40,40.07,40,40.05, 9856
04/06/2020,19:50,40.07,40.14,40.03,40.085, 4829
04/06/2020,19:51,40.1,40.11,40.04,40.11, 5778
04/06/2020,19:52,40.115,40.13,40.075,40.075, 4562
04/06/2020,19:53,40.07,40.08,40,40, 9328
04/06/2020,19:54,40.015,40.06,39.94,40.01, 8418
04/06/2020,19:55,40,40.017,39.917,39.917, 4501
04/06/2020,19:56,39.93,39.931,39.89,39.91, 7493
04/06/2020,19:57,39.9,39.95,39.895,39.94, 3230
04/06/2020,19:58,39.95,40.01,39.9,39.92, 7567
04/06/2020,19:59,39.96,39.97,39.89,39.89, 4350
04/06/2020,20:00,39.91,39.91,39.78,39.79, 11059
04/06/2020,20:01,39.805,39.87,39.71,39.71, 13429
04/06/2020,20:02,39.715,39.72,39.55,39.6, 10208
04/06/2020,20:03,39.6,39.65,39.57,39.58, 5321
04/06/2020,20:04,39.57,39.58,39.41,39.41, 4200
04/06/2020,20:05,39.44,39.5,39.37,39.4, 7246
04/06/2020,20:06,39.43,39.53,39.41,39.437, 9150
04/06/2020,20:07,39.42,39.505,39.39,39.41, 3320
04/06/2020,20:08,39.45,39.46,39.39,39.43, 12462
04/06/2020,20:09,39.4,39.46,39.346,39.346, 5518
04/06/2020,20:10,39.39,39.48,39.38,39.43, 4359
04/06/2020,20:11,39.43,39.46,39.38,39.42, 3828
04/06/2020,20:12,39.43,39.47,39.39,39.4, 3146
04/06/2020,20:13,39.41,39.51,39.4,39.502, 5664
04/06/2020,20:14,39.495,39.53,39.42,39.46, 7868
04/06/2020,20:15,39.47,39.47,39.38,39.405, 3464
04/06/2020,20:16,39.41,39.44,39.37,39.415, 4407
04/06/2020,20:17,39.44,39.5,39.44,39.5, 8380
04/06/2020,20:18,39.5,39.51,39.44,39.5, 10874
04/06/2020,20:19,39.51,39.52,39.46,39.46, 19898
04/06/2020,20:20,39.46,39.58,39.46,39.54, 7513
04/06/2020,20:21,39.585,39.62,39.54,39.594, 13257
04/06/2020,20:22,39.6,39.61,39.48,39.48, 6458
04/06/2020,20:23,39.53,39.57,39.515,39.53, 3025
04/06/2020,20:24,39.525,39.63,39.52,39.58, 7798
04/06/2020,20:25,39.587,39.65,39.51,39.51, 41068
04/06/2020,20:26,39.52,39.55,39.44,39.47, 18601
04/06/2020,20:27,39.46,39.5,39.38,39.39, 10930
04/06/2020,20:28,39.39,39.48,39.27,39.27, 15220
04/06/2020,20:29,39.3,39.41,39.3,39.34, 17143
04/06/2020,20:30,39.35,39.39,39.3,39.33, 11653
04/06/2020,20:31,39.335,39.41,39.27,39.34, 27226
04/06/2020,20:32,39.365,39.4,39.31,39.34, 9053
04/06/2020,20:33,39.3,39.41,39.23,39.36, 30838
04/06/2020,20:34,39.37,39.4,39.33,39.335, 7870
04/06/2020,20:35,39.32,39.37,39.23,39.285, 34180
04/06/2020,20:36,39.295,39.315,39.215,39.215, 23944
04/06/2020,20:37,39.24,39.32,39.24,39.31, 4460
04/06/2020,20:38,39.285,39.3,39.15,39.15, 19752
04/06/2020,20:39,39.18,39.25,39.15,39.155, 8847
04/06/2020,20:40,39.17,39.22,39.13,39.21, 17995
04/06/2020,20:41,39.21,39.21,39.15,39.16, 20232
04/06/2020,20:42,39.17,39.18,39.05,39.09, 20686
04/06/2020,20:43,39.11,39.17,39.09,39.095, 12551
04/06/2020,20:44,39.09,39.11,39.049,39.09, 17717
04/06/2020,20:45,39.1,39.14,39.07,39.091, 13448
04/06/2020,20:46,39.09,39.12,39.01,39.01, 21170
04/06/2020,20:47,39.01,39.12,39,39.09, 21387
04/06/2020,20:48,39.09,39.122,39.04,39.11, 17640
04/06/2020,20:49,39.11,39.17,39.08,39.14, 53079
04/06/2020,20:50,39.17,39.29,39.16,39.25, 4987
04/06/2020,20:51,39.27,39.32,39.25,39.3, 18928
04/06/2020,20:52,39.29,39.4,39.21,39.29, 93408
04/06/2020,20:53,39.29,39.31,39.25,39.29, 31426
04/06/2020,20:54,39.3,39.342,39.28,39.32, 6460
04/06/2020,20:55,39.335,39.335,39.29,39.3, 15299
04/06/2020,20:56,39.3,39.31,39.19,39.24, 20460
04/06/2020,20:57,39.25,39.265,39.05,39.13, 16688
04/06/2020,20:58,39.13,39.25,39.13,39.235, 10333
04/06/2020,20:59,39.23,39.27,39.2,39.2, 20466
04/06/2020,21:00,39.22,39.25,39.195,39.21, 5622
04/06/2020,21:01,39.21,39.225,39.14,39.17, 19441
04/06/2020,21:02,39.16,39.18,39.11,39.13, 6210
04/06/2020,21:03,39.13,39.16,39,39.09, 7450
04/06/2020,21:04,39.075,39.12,39.05,39.08, 19304
04/06/2020,21:05,39.08,39.19,39.07,39.19, 46249
04/06/2020,21:06,39.2,39.359,39.2,39.345, 23965
04/06/2020,21:07,39.355,39.44,39.355,39.385, 23015
04/06/2020,21:08,39.385,39.53,39.385,39.53, 12476
04/06/2020,21:09,39.52,39.55,39.45,39.47, 54629
04/06/2020,21:10,39.47,39.5,39.405,39.47, 19366
04/06/2020,21:11,39.5,39.54,39.48,39.54, 11450
04/06/2020,21:12,39.54,39.65,39.48,39.48, 11255
04/06/2020,21:13,39.485,39.5,39.33,39.33, 18569
04/06/2020,21:14,39.32,39.4,39.3,39.37, 26174
04/06/2020,21:15,39.36,39.415,39.34,39.36, 9106
04/06/2020,21:16,39.37,39.41,39.33,39.385, 9415
04/06/2020,21:17,39.4,39.46,39.385,39.459, 6826
04/06/2020,21:18,39.42,39.424,39.25,39.3, 12176
04/06/2020,21:19,39.302,39.37,39.27,39.29, 15132
04/06/2020,21:20,39.3,39.39,39.29,39.3, 10981
04/06/2020,21:21,39.29,39.475,39.27,39.43, 22915
04/06/2020,21:22,39.43,39.43,39.38,39.4, 26322
04/06/2020,21:23,39.39,39.43,39.38,39.41, 32130
04/06/2020,21:24,39.4,39.479,39.39,39.46, 13032
04/06/2020,21:25,39.47,39.509,39.46,39.49, 24925
04/06/2020,21:26,39.5,39.555,39.47,39.53, 36402
04/06/2020,21:27,39.505,39.53,39.48,39.5, 6783
04/06/2020,21:28,39.5,39.65,39.5,39.58, 12230
04/06/2020,21:29,39.59,39.63,39.56,39.58, 12516
04/06/2020,21:30,39.57,39.62,39.57,39.6, 7817
04/06/2020,21:31,39.61,39.63,39.535,39.54, 23662
04/06/2020,21:32,39.545,39.635,39.54,39.595, 22293
04/06/2020,21:33,39.597,39.718,39.597,39.71, 11114
04/06/2020,21:34,39.715,39.8,39.71,39.785, 8885
04/06/2020,21:35,39.8,39.82,39.665,39.665, 19902
04/06/2020,21:36,39.665,39.74,39.66,39.74, 9053
04/06/2020,21:37,39.73,39.79,39.72,39.753, 9915
04/06/2020,21:38,39.76,39.76,39.6,39.675, 28052
04/06/2020,21:39,39.67,39.71,39.58,39.605, 14790
04/06/2020,21:40,39.61,39.692,39.6,39.65, 23931
04/06/2020,21:41,39.64,39.72,39.64,39.7, 17191
04/06/2020,21:42,39.69,39.69,39.61,39.615, 19307
04/06/2020,21:43,39.6,39.66,39.54,39.64, 24886
04/06/2020,21:44,39.64,39.7,39.61,39.61, 26852
04/06/2020,21:45,39.6,39.8,39.55,39.8, 65899
04/06/2020,21:46,39.77,39.84,39.63,39.71, 15488
04/06/2020,21:46,39.7,39.7,39.63,39.66, 23140
04/06/2020,21:47,39.66,39.67,39.39,39.422, 30047
04/06/2020,21:48,39.37,39.38,39.11,39.12, 37188
04/06/2020,21:49,39.105,39.21,39.09,39.19, 77228
04/06/2020,21:50,39.19,39.29,39.06,39.27, 71791
04/06/2020,21:50,39.29,39.36,39.219,39.34, 30123
04/06/2020,21:51,39.34,39.71,39.31,39.62, 12522
04/06/2020,21:51,39.48,39.71,39.47,39.65, 16387
04/06/2020,21:52,39.66,39.79,39.58,39.74, 36285
04/06/2020,21:52,39.72,39.77,39.63,39.74, 19807
04/06/2020,21:53,39.7,39.8,39.65,39.735, 26922
04/06/2020,21:53,39.76,39.79,39.69,39.76, 23732
04/06/2020,21:54,39.74,39.76,39.64,39.725, 15730
04/06/2020,21:55,39.73,39.83,39.7,39.81, 22248
04/06/2020,21:55,39.795,39.84,39.78,39.78, 15966
04/06/2020,21:55,39.795,39.83,39.76,39.765, 18409
04/06/2020,21:56,39.76,39.87,39.74,39.815, 36243
04/06/2020,21:56,39.8,39.81,39.68,39.7, 46457
04/06/2020,21:57,39.695,39.71,39.55,39.675, 46983
04/06/2020,21:58,39.675,39.715,39.54,39.6, 42458
04/06/2020,21:58,39.617,39.635,39.43,39.48, 66604
04/06/2020,21:59,39.49,39.51,39.31,39.44, 61040
04/06/2020,21:59,39.43,39.43,39.38,39.4, 88811
04/06/2020,22:00,39.4,39.41,39.38,39.4, 81774
04/06/2020,22:00,39.4,39.42,39.28,39.31, 161681
04/06/2020,22:00,39.305,39.515,39.29,39.505, 259280
04/06/2020,22:03,39.505,39.52,39.36,39.43, 913358
04/07/2020,15:31,42,42,41.58,41.71, 104718
04/07/2020,15:31,41.71,41.895,41.13,41.74, 31092
04/07/2020,15:32,41.803,41.82,41.2,41.5, 4600
04/07/2020,15:32,41.529,41.75,41.25,41.37, 37585
04/07/2020,15:33,41.455,41.6,41.19,41.35, 24490
04/07/2020,15:36,41.345,41.5,41.295,41.36, 20778
04/07/2020,15:37,41.27,41.43,41.14,41.397, 31705
04/07/2020,15:37,41.355,41.42,41.19,41.3, 52353
04/07/2020,15:38,41.37,41.534,41.283,41.283, 7216
04/07/2020,15:38,41.24,41.58,41.21,41.385, 13370
04/07/2020,15:39,41.28,41.379,41.23,41.255, 6861
04/07/2020,15:40,41.25,41.335,41.21,41.33, 8229
04/07/2020,15:40,41.29,41.315,41.18,41.3, 8334
04/07/2020,15:41,41.315,41.315,41.14,41.27, 2567
04/07/2020,15:41,41.293,41.345,41.235,41.3, 1929
04/07/2020,15:42,41.29,41.535,41.27,41.535, 6525
04/07/2020,15:43,41.5,41.51,41.33,41.39, 16469
04/07/2020,15:43,41.45,41.45,41.31,41.33, 4108
04/07/2020,15:43,41.29,41.35,41.265,41.28, 2100
04/07/2020,15:44,41.36,41.4,41.29,41.29, 5700
04/07/2020,15:45,41.28,41.38,41.27,41.29, 6198
04/07/2020,15:47,41.34,41.62,41.26,41.57, 32823
04/07/2020,15:47,41.54,41.74,41.54,41.72, 10176
04/07/2020,15:48,41.7,41.884,41.7,41.71, 4425
04/07/2020,15:49,41.69,41.76,41.6,41.69, 5156
04/07/2020,15:49,41.74,41.74,41.53,41.53, 6150
04/07/2020,15:52,41.55,41.665,41.54,41.665, 5857
04/07/2020,15:53,41.665,41.76,41.63,41.69, 25642
04/07/2020,15:53,41.725,41.83,41.7,41.72, 33970
04/07/2020,15:54,41.73,41.81,41.7,41.78, 11931
04/07/2020,15:54,41.8,41.82,41.79,41.8, 2300
04/07/2020,15:55,41.785,41.86,41.7,41.84, 8145
04/07/2020,15:56,41.8,41.875,41.78,41.87, 6682
04/07/2020,15:57,41.88,41.94,41.82,41.86, 6027
04/07/2020,15:57,41.8,41.85,41.74,41.78, 4539
04/07/2020,15:58,41.74,41.89,41.7,41.89, 2000
04/07/2020,15:58,41.91,41.93,41.801,41.849, 5300
04/07/2020,15:59,41.905,42.24,41.9,42.22, 33980
04/07/2020,16:00,42.26,42.33,42.2,42.271, 11433
04/07/2020,16:00,42.26,42.405,42.23,42.405, 2141
04/07/2020,16:01,42.44,42.536,42.38,42.45, 3506
04/07/2020,16:02,42.48,42.49,42.34,42.395, 9299
04/07/2020,16:02,42.36,42.389,42.28,42.3, 24304
04/07/2020,16:03,42.35,42.4,42.325,42.39, 15650
04/07/2020,16:03,42.35,42.365,42.23,42.28, 25049
04/07/2020,16:04,42.25,42.33,42.18,42.26, 7263
04/07/2020,16:05,42.255,42.255,41.99,41.99, 5820
04/07/2020,16:05,42.057,42.15,42.057,42.08, 4127
04/07/2020,16:06,42.01,42.15,41.98,42.07, 6379
04/07/2020,16:06,42.07,42.13,42,42.12, 2400
04/07/2020,16:07,42.21,42.43,42.12,42.43, 8146
04/07/2020,16:07,42.375,42.38,42.23,42.325, 4329
04/07/2020,16:08,42.3,42.34,42.23,42.24, 5562
04/07/2020,16:09,42.19,42.22,42.09,42.18, 5199
04/07/2020,16:09,42.16,42.16,42.09,42.09, 1500
04/07/2020,16:10,42.05,42.17,42.03,42.11, 3343
04/07/2020,16:10,42.085,42.085,41.93,41.93, 3000
04/07/2020,16:11,41.97,42.015,41.91,41.91, 4213
04/07/2020,16:11,41.97,42.1,41.91,42.08, 6379
04/07/2020,16:12,42.13,42.17,42.11,42.111, 2300
04/07/2020,16:13,42.1,42.115,41.94,41.94, 4240
04/07/2020,16:13,41.94,42.08,41.9,41.9, 4900
04/07/2020,16:14,41.86,41.86,41.55,41.705, 53115
04/07/2020,16:14,41.73,41.77,41.65,41.67, 5496
04/07/2020,16:15,41.57,41.75,41.54,41.67, 41091
04/07/2020,16:15,41.63,41.67,41.49,41.63, 7168
04/07/2020,16:16,41.625,41.625,41.46,41.49, 4328
04/07/2020,16:17,41.49,41.59,41.46,41.59, 5325
04/07/2020,16:17,41.62,41.65,41.47,41.5, 14195
04/07/2020,16:18,41.5,41.58,41.47,41.5, 11773
04/07/2020,16:19,41.58,41.63,41.47,41.485, 2750
04/07/2020,16:19,41.47,41.56,41.46,41.5, 10300
04/07/2020,16:20,41.53,41.59,41.47,41.503, 7700
04/07/2020,16:21,41.505,41.62,41.47,41.53, 5002
04/07/2020,16:21,41.55,41.78,41.55,41.75, 3744
04/07/2020,16:22,41.75,41.75,41.63,41.635, 3239
04/07/2020,16:23,41.635,41.652,41.44,41.517, 14353
04/07/2020,16:24,41.55,41.64,41.44,41.44, 9708
04/07/2020,16:24,41.465,41.52,41.34,41.442, 11007
04/07/2020,16:25,41.48,41.54,41.44,41.54, 3800
04/07/2020,16:25,41.51,41.68,41.46,41.46, 6080
04/07/2020,16:27,41.44,41.59,41.41,41.59, 15006
04/07/2020,16:28,41.55,41.9,41.52,41.855, 15053
04/07/2020,16:29,41.78,42.051,41.78,41.98, 8588
04/07/2020,16:30,42.02,42.035,41.83,41.88, 9507
04/07/2020,16:31,41.875,41.875,41.68,41.74, 4854
04/07/2020,16:32,41.82,41.947,41.76,41.79, 2228
04/07/2020,16:32,41.83,41.87,41.821,41.843, 1620
04/07/2020,16:33,41.835,42,41.835,41.94, 2900
04/07/2020,16:34,41.92,42.03,41.86,42.03, 12772
04/07/2020,16:35,42.03,42.16,42.03,42.12, 4684
04/07/2020,16:35,42.16,42.21,42.095,42.15, 6525
04/07/2020,16:36,42.15,42.205,42.09,42.2, 6782
04/07/2020,16:37,42.16,42.205,42.12,42.16, 5300
04/07/2020,16:38,42.16,42.29,42.1,42.12, 47425
04/07/2020,16:38,42.133,42.26,42.07,42.2, 11339
04/07/2020,16:39,42.21,42.25,41.99,41.99, 7917
04/07/2020,16:40,42,42,41.84,41.91, 2374
04/07/2020,16:40,41.94,42.03,41.92,41.97, 1800
04/07/2020,16:41,41.94,41.94,41.85,41.87, 2050
04/07/2020,16:42,41.83,41.89,41.83,41.865, 900
04/07/2020,16:42,41.83,41.87,41.54,41.78, 9611
04/07/2020,16:43,41.84,41.89,41.815,41.83, 1900
04/07/2020,16:44,41.86,41.94,41.86,41.925, 1000
04/07/2020,16:44,41.96,42.05,41.81,41.86, 15234
04/07/2020,16:45,41.865,41.88,41.76,41.88, 8930
04/07/2020,16:46,41.85,42.01,41.84,41.97, 1800
04/07/2020,16:46,41.932,42.03,41.932,41.96, 3079
04/07/2020,16:47,41.97,42,41.86,41.89, 3155
04/07/2020,16:48,41.88,41.98,41.85,41.92, 2700
04/07/2020,16:49,41.92,41.92,41.84,41.84, 4118
04/07/2020,16:49,41.84,41.86,41.74,41.76, 11529
04/07/2020,16:50,41.74,41.785,41.56,41.63, 11750
04/07/2020,16:51,41.645,41.71,41.63,41.71, 3450
04/07/2020,16:56,41.67,41.815,41.41,41.445, 7916
04/07/2020,16:57,41.49,41.6,41.48,41.55, 25950
04/07/2020,16:58,41.7,41.92,41.7,41.91, 4831
04/07/2020,16:59,42.02,42.02,41.71,41.88, 9217
04/07/2020,17:00,41.88,41.95,41.815,41.84, 8307
04/07/2020,17:01,41.85,42.06,41.85,41.98, 26945
04/07/2020,17:02,41.99,42.08,41.87,42.05, 7958
04/07/2020,17:03,42.02,42.23,41.92,42.23, 9845
04/07/2020,17:04,42.21,42.29,42.16,42.25, 28731
04/07/2020,17:06,42.25,42.49,42.24,42.45, 13736
04/07/2020,17:07,42.47,42.859,42.47,42.805, 17891
04/07/2020,17:08,42.79,42.86,42.69,42.86, 11999
04/07/2020,17:09,42.84,42.94,42.77,42.78, 13481
04/07/2020,17:11,42.77,42.876,42.68,42.75, 38762
04/07/2020,17:12,42.765,42.78,42.57,42.595, 20244
04/07/2020,17:13,42.56,42.63,42.51,42.61, 10630
04/07/2020,17:14,42.65,42.71,42.48,42.57, 13434
04/07/2020,17:15,42.6,42.825,42.6,42.81, 14123
04/07/2020,17:16,42.843,42.91,42.76,42.8, 28209
04/07/2020,17:17,42.86,42.926,42.79,42.86, 14461
04/07/2020,17:18,42.82,42.865,42.68,42.76, 5545
04/07/2020,17:20,42.69,42.77,42.48,42.542, 14856
04/07/2020,17:21,42.5,42.51,42.32,42.34, 5195
04/07/2020,17:22,42.25,42.4,42.22,42.28, 10738
04/07/2020,17:23,42.27,42.3,42.09,42.13, 6750
04/07/2020,17:25,42.12,42.365,42.08,42.26, 17452
04/07/2020,17:25,42.295,42.34,42.15,42.17, 3200
04/07/2020,17:26,42.17,42.27,42.04,42.05, 13772
04/07/2020,17:28,42.08,42.327,42,42.28, 14152
04/07/2020,17:29,42.3,42.53,42.14,42.53, 7378
04/07/2020,17:30,42.49,42.62,42.41,42.61, 15717
04/07/2020,17:31,42.6,42.68,42.6,42.66, 7396
04/07/2020,17:32,42.64,42.94,42.6,42.87, 17736
04/07/2020,17:34,42.89,42.93,42.63,42.73, 19107
04/07/2020,17:36,42.735,42.88,42.72,42.81, 9301
04/07/2020,17:37,42.787,42.83,42.65,42.75, 7165
04/07/2020,17:39,42.73,42.91,42.69,42.91, 7924
04/07/2020,17:40,42.84,42.91,42.79,42.87, 12410
04/07/2020,17:42,42.91,42.93,42.82,42.888, 13442
04/07/2020,17:44,42.9,42.92,42.78,42.84, 16703
04/07/2020,17:45,42.83,42.94,42.8,42.81, 16274
04/07/2020,17:47,42.83,42.9,42.7,42.76, 10655
04/07/2020,17:49,42.73,42.9,42.71,42.76, 11146
04/07/2020,17:51,42.72,42.74,42.56,42.56, 6059
04/07/2020,17:53,42.56,42.57,42.33,42.43, 7891
04/07/2020,17:54,42.46,42.49,42.385,42.43, 9534
04/07/2020,17:56,42.46,42.6,42.46,42.5, 6140
04/07/2020,17:58,42.5,42.67,42.5,42.63, 7271
04/07/2020,18:00,42.67,42.74,42.51,42.51, 23948
04/07/2020,18:02,42.49,42.7,42.49,42.67, 8948
04/07/2020,18:04,42.67,42.75,42.61,42.705, 5848
04/07/2020,18:05,42.7,42.75,42.63,42.74, 7463
04/07/2020,18:06,42.715,42.9,42.7,42.88, 10029
04/07/2020,18:08,42.89,42.9,42.73,42.75, 8734
04/07/2020,18:10,42.73,42.85,42.71,42.81, 4585
04/07/2020,18:12,42.855,42.862,42.76,42.764, 6875
04/07/2020,18:14,42.77,42.824,42.744,42.824, 5152
04/07/2020,18:15,42.83,42.9,42.77,42.86, 10727
04/07/2020,18:17,42.868,42.92,42.78,42.87, 19573
04/07/2020,18:19,42.87,42.91,42.85,42.87, 11241
04/07/2020,18:23,42.85,42.92,42.79,42.81, 10864
04/07/2020,18:25,42.79,42.81,42.64,42.65, 7878
04/07/2020,18:27,42.69,42.76,42.595,42.644, 6966
04/07/2020,18:28,42.59,42.64,42.52,42.555, 2400
04/07/2020,18:29,42.53,42.58,42.49,42.56, 5375
04/07/2020,18:30,42.6,42.68,42.57,42.68, 4235
04/07/2020,18:31,42.69,42.76,42.69,42.76, 2218
04/07/2020,18:32,42.81,42.81,42.69,42.76, 6662
04/07/2020,18:33,42.72,42.77,42.67,42.7, 21726
04/07/2020,18:34,42.69,42.7,42.58,42.59, 4239
04/07/2020,18:35,42.575,42.61,42.402,42.46, 5950
04/07/2020,18:36,42.45,42.49,42.34,42.34, 4600
04/07/2020,18:37,42.354,42.4,42.27,42.32, 5350
04/07/2020,18:38,42.32,42.43,42.32,42.39, 7735
04/07/2020,18:39,42.42,42.488,42.405,42.439, 4159
04/07/2020,18:40,42.44,42.45,42.31,42.31, 6866
04/07/2020,18:41,42.32,42.34,42.27,42.29, 3320
04/07/2020,18:42,42.26,42.33,42.208,42.28, 4212
04/07/2020,18:43,42.245,42.28,42.22,42.255, 1282
04/07/2020,18:44,42.24,42.37,42.24,42.37, 5788
04/07/2020,18:45,42.38,42.44,42.35,42.36, 3700
04/07/2020,18:46,42.36,42.41,42.3,42.38, 4651
04/07/2020,18:47,42.41,42.54,42.38,42.53, 2089
04/07/2020,18:48,42.51,42.65,42.5,42.62, 6328
04/07/2020,18:49,42.61,42.623,42.525,42.623, 11984
04/07/2020,18:50,42.63,42.712,42.61,42.705, 4341
04/07/2020,18:51,42.73,42.74,42.61,42.63, 6201
04/07/2020,18:52,42.64,42.64,42.51,42.51, 2355
04/07/2020,18:53,42.54,42.61,42.53,42.58, 2200
04/07/2020,18:54,42.61,42.62,42.46,42.49, 3500
04/07/2020,18:55,42.51,42.54,42.37,42.37, 6602
04/07/2020,18:56,42.405,42.44,42.35,42.44, 3188
04/07/2020,18:57,42.4,42.49,42.35,42.48, 4500
04/07/2020,18:58,42.48,42.55,42.44,42.51, 4490
04/07/2020,18:59,42.49,42.5,42.43,42.47, 3842
04/07/2020,19:00,42.47,42.49,42.32,42.37, 7270
04/07/2020,19:01,42.34,42.46,42.34,42.4, 3253
04/07/2020,19:02,42.44,42.44,42.322,42.37, 3687
04/07/2020,19:03,42.36,42.41,42.28,42.34, 3968
04/07/2020,19:04,42.33,42.33,42.21,42.31, 9257
04/07/2020,19:05,42.276,42.29,42.2,42.205, 8433
04/07/2020,19:06,42.16,42.22,42.09,42.11, 21335
04/07/2020,19:07,42.11,42.19,42.09,42.15, 5042
04/07/2020,19:08,42.17,42.2,42.1,42.12, 6750
04/07/2020,19:09,42.13,42.13,42.05,42.05, 20008
04/07/2020,19:10,42.055,42.13,41.9,42.09, 8561
04/07/2020,19:11,42.13,42.13,41.98,42.05, 3951
04/07/2020,19:12,42.035,42.035,41.881,42, 10469
04/07/2020,19:13,41.985,42.07,41.845,41.85, 14405
04/07/2020,19:14,41.87,41.98,41.87,41.92, 9391
04/07/2020,19:15,41.94,42.1,41.94,42.1, 3700
04/07/2020,19:16,42.085,42.12,42.05,42.07, 3462
04/07/2020,19:17,42.04,42.05,41.97,41.99, 7566
04/07/2020,19:18,42.02,42.082,42,42.05, 4852
04/07/2020,19:19,42.05,42.078,41.99,42.075, 7542
04/07/2020,19:20,42.05,42.1,41.93,41.93, 16542
04/07/2020,19:21,41.95,42.085,41.95,41.98, 8576
04/07/2020,19:22,41.96,42,41.85,41.95, 29441
04/07/2020,19:23,41.925,42.21,41.9,42.175, 17463
04/07/2020,19:24,42.175,42.21,42.04,42.17, 10738
04/07/2020,19:25,42.16,42.34,42.131,42.33, 5826
04/07/2020,19:26,42.34,42.35,42.25,42.27, 8257
04/07/2020,19:27,42.265,42.35,42.22,42.35, 9701
04/07/2020,19:28,42.36,42.36,42.27,42.31, 13900
04/07/2020,19:29,42.3,42.34,42.22,42.22, 4910
04/07/2020,19:30,42.22,42.4,42.19,42.395, 4624
04/07/2020,19:31,42.43,42.46,42.323,42.34, 5606
04/07/2020,19:32,42.33,42.53,42.32,42.515, 3574
04/07/2020,19:33,42.505,42.535,42.41,42.535, 12537
04/07/2020,19:34,42.51,42.58,42.5,42.51, 4489
04/07/2020,19:35,42.5,42.53,42.39,42.44, 4138
04/07/2020,19:36,42.43,42.54,42.414,42.45, 6078
04/07/2020,19:37,42.48,42.51,42.46,42.5, 7996
04/07/2020,19:38,42.51,42.53,42.43,42.46, 4506
04/07/2020,19:39,42.467,42.53,42.44,42.45, 6574
04/07/2020,19:40,42.435,42.539,42.435,42.53, 77024
04/07/2020,19:41,42.505,42.519,42.36,42.36, 7672
04/07/2020,19:42,42.36,42.53,42.36,42.53, 3994
04/07/2020,19:43,42.496,42.58,42.496,42.58, 4817
04/07/2020,19:44,42.56,42.59,42.53,42.55, 5550
04/07/2020,19:45,42.55,42.55,42.38,42.38, 5756
04/07/2020,19:46,42.32,42.41,42.31,42.39, 7625
04/07/2020,19:47,42.39,42.39,42.26,42.33, 5181
04/07/2020,19:48,42.335,42.46,42.3,42.4, 4348
04/07/2020,19:49,42.42,42.42,42.2,42.2, 5501
04/07/2020,19:50,42.22,42.255,42.13,42.17, 3106
04/07/2020,19:51,42.17,42.19,42.05,42.05, 6472
04/07/2020,19:52,42.08,42.12,41.985,42.12, 11069
04/07/2020,19:53,42.1,42.12,42.03,42.1, 3751
04/07/2020,19:54,42.14,42.19,41.985,42.06, 12250
04/07/2020,19:55,42.07,42.19,42.02,42.11, 9340
04/07/2020,19:56,42.1,42.133,42.03,42.1, 6100
04/07/2020,19:57,42.05,42.09,41.96,42.07, 8072
04/07/2020,19:58,42.09,42.27,42.06,42.15, 15340
04/07/2020,19:59,42.16,42.21,42.14,42.15, 7265
04/07/2020,20:00,42.15,42.15,42.08,42.1, 5050
04/07/2020,20:01,42.1,42.12,41.97,42.02, 11126
04/07/2020,20:02,42.02,42.06,41.91,42, 14650
04/07/2020,20:03,42.015,42.16,41.98,42.16, 25948
04/07/2020,20:04,42.16,42.2,42.095,42.16, 15538
04/07/2020,20:05,42.16,42.27,42.15,42.235, 13316
04/07/2020,20:06,42.24,42.24,42.16,42.185, 23808
04/07/2020,20:07,42.185,42.25,42.095,42.12, 16456
04/07/2020,20:08,42.07,42.23,42.07,42.12, 13654
04/07/2020,20:09,42.12,42.355,42.112,42.355, 16835
04/07/2020,20:10,42.355,42.36,42.225,42.29, 6101
04/07/2020,20:11,42.31,42.34,42.215,42.265, 7701
04/07/2020,20:12,42.265,42.41,42.25,42.345, 6434
04/07/2020,20:13,42.37,42.41,42.26,42.31, 11558
04/07/2020,20:14,42.29,42.3,42.19,42.28, 14354
04/07/2020,20:15,42.28,42.28,42.16,42.2, 5606
04/07/2020,20:16,42.2,42.24,42.145,42.2, 22679
04/07/2020,20:17,42.18,42.23,42.12,42.195, 21689
04/07/2020,20:18,42.195,42.2,41.77,41.78, 17369
04/07/2020,20:19,41.79,41.95,41.745,41.765, 63072
04/07/2020,20:20,41.76,41.85,41.63,41.785, 26414
04/07/2020,20:21,41.77,41.9,41.76,41.88, 19180
04/07/2020,20:22,41.88,42.01,41.79,41.975, 11186
04/07/2020,20:23,42,42.1,41.93,41.98, 11200
04/07/2020,20:24,42.02,42.11,42.02,42.07, 5369
04/07/2020,20:25,42.04,42.11,42.01,42.01, 8787
04/07/2020,20:26,42.06,42.129,42.04,42.1, 4823
04/07/2020,20:27,42.12,42.16,41.99,42.055, 10256
04/07/2020,20:28,42.07,42.14,41.99,42.07, 6946
04/07/2020,20:29,42.09,42.14,42.07,42.105, 10595
04/07/2020,20:30,42.12,42.13,41.96,41.96, 7035
04/07/2020,20:31,41.97,42.08,41.91,42.06, 13155
04/07/2020,20:32,42.06,42.1,42,42.06, 4239
04/07/2020,20:33,42.06,42.09,41.94,41.94, 7100
04/07/2020,20:34,41.91,42.06,41.87,42.015, 74887
04/07/2020,20:35,42.02,42.07,41.94,42, 11810
04/07/2020,20:36,42,42.04,41.97,41.99, 8697
04/07/2020,20:37,41.99,42.08,41.985,42.07, 13719
04/07/2020,20:38,42.08,42.08,41.96,42.01, 55194
04/07/2020,20:39,42.01,42.08,41.71,41.73, 60762
04/07/2020,20:40,41.76,41.8,41.56,41.62, 12060
04/07/2020,20:41,41.6,41.61,41.45,41.5, 68171
04/07/2020,20:42,41.5,41.56,41.48,41.48, 4242
04/07/2020,20:43,41.47,41.516,41.385,41.41, 9018
04/07/2020,20:44,41.42,41.42,41.32,41.367, 3100
04/07/2020,20:45,41.34,41.38,41.2,41.2, 11084
04/07/2020,20:46,41.22,41.4,41.22,41.34, 22458
04/07/2020,20:47,41.33,41.56,41.33,41.5, 35509
04/07/2020,20:48,41.52,41.63,41.46,41.46, 11288
04/07/2020,20:49,41.391,41.42,41.16,41.19, 22161
04/07/2020,20:50,41.18,41.193,41.031,41.19, 29373
04/07/2020,20:51,41.18,41.45,41.14,41.2, 16758
04/07/2020,20:52,41.195,41.27,41.13,41.17, 10862
04/07/2020,20:53,41.16,41.3,41.08,41.3, 7472
04/07/2020,20:54,41.315,41.35,41.09,41.16, 7936
04/07/2020,20:55,41.18,41.19,40.92,40.97, 12860
04/07/2020,20:56,40.99,41.01,40.75,40.79, 19017
04/07/2020,20:57,40.76,40.83,40.61,40.77, 24926
04/07/2020,20:58,40.77,40.95,40.76,40.82, 16524
04/07/2020,20:59,40.83,40.92,40.75,40.805, 14579
04/07/2020,21:00,40.78,40.84,40.73,40.84, 11871
04/07/2020,21:01,40.855,40.93,40.76,40.92, 13415
04/07/2020,21:02,40.95,41.04,40.896,41.025, 17324
04/07/2020,21:03,41.05,41.06,40.88,41.05, 11704
04/07/2020,21:04,41.08,41.14,41.01,41.11, 14178
04/07/2020,21:05,41.1,41.1,40.99,41.015, 8958
04/07/2020,21:06,41.02,41.03,40.9,40.975, 11811
04/07/2020,21:07,40.99,41.11,40.92,41.035, 12210
04/07/2020,21:08,41.035,41.035,40.85,40.925, 9701
04/07/2020,21:09,40.91,40.94,40.85,40.89, 12842
04/07/2020,21:10,40.88,41.159,40.87,41.13, 12160
04/07/2020,21:11,41.11,41.29,41.1,41.254, 10139
04/07/2020,21:12,41.2,41.57,41.195,41.57, 19046
04/07/2020,21:13,41.54,41.68,41.495,41.67, 11130
04/07/2020,21:14,41.675,41.76,41.59,41.63, 9463
04/07/2020,21:15,41.67,41.77,41.63,41.68, 22129
04/07/2020,21:16,41.67,41.71,41.61,41.62, 6719
04/07/2020,21:17,41.6,41.62,41.4,41.46, 9148
04/07/2020,21:18,41.45,41.52,41.38,41.5, 4612
04/07/2020,21:19,41.525,41.525,41.37,41.37, 4750
04/07/2020,21:20,41.35,41.36,41.17,41.34, 9121
04/07/2020,21:21,41.34,41.34,41.19,41.28, 5890
04/07/2020,21:22,41.23,41.23,41.01,41.065, 13404
04/07/2020,21:23,41.08,41.18,41.04,41.18, 7150
04/07/2020,21:24,41.15,41.19,41.05,41.07, 11465
04/07/2020,21:25,41.073,41.14,41.04,41.05, 2932
04/07/2020,21:26,41.04,41.06,40.88,40.91, 47454
04/07/2020,21:27,40.96,40.97,40.79,40.955, 49728
04/07/2020,21:28,40.99,41.12,40.96,41.065, 37950
04/07/2020,21:29,41.09,41.19,41.03,41.04, 7548
04/07/2020,21:30,41.07,41.18,40.92,40.955, 10112
04/07/2020,21:31,40.91,40.94,40.82,40.895, 7460
04/07/2020,21:32,40.91,41.12,40.91,41.09, 13932
04/07/2020,21:33,41.14,41.18,40.98,41.02, 26918
04/07/2020,21:34,41.01,41.02,40.87,40.99, 12771
04/07/2020,21:35,41.02,41.2,40.96,41.05, 15082
04/07/2020,21:36,41.045,41.27,41.045,41.19, 12689
04/07/2020,21:37,41.16,41.26,41.145,41.26, 9240
04/07/2020,21:38,41.27,41.34,41.23,41.27, 8763
04/07/2020,21:39,41.275,41.37,41.26,41.29, 7920
04/07/2020,21:40,41.29,41.56,41.25,41.545, 17731
04/07/2020,21:41,41.53,41.69,41.53,41.69, 32424
04/07/2020,21:42,41.675,41.9,41.66,41.9, 25634
04/07/2020,21:43,41.88,41.95,41.85,41.87, 27579
04/07/2020,21:44,41.92,41.95,41.79,41.875, 21261
04/07/2020,21:45,41.89,41.9,41.83,41.85, 33432
04/07/2020,21:46,41.84,41.91,41.73,41.88, 19580
04/07/2020,21:47,41.86,42.2,41.86,42, 27191
04/07/2020,21:48,41.96,42.2,41.94,42.17, 21299
04/07/2020,21:49,42.19,42.47,42.19,42.39, 35844
04/07/2020,21:49,42.38,42.38,42.24,42.29, 24296
04/07/2020,21:50,42.31,42.34,42.215,42.31, 24223
04/07/2020,21:51,42.34,42.51,42.29,42.395, 12022
04/07/2020,21:51,42.42,42.48,42.01,42.125, 17233
04/07/2020,21:52,42.06,42.145,41.94,42.145, 16382
04/07/2020,21:53,42.15,42.15,41.82,41.87, 21972
04/07/2020,21:53,41.86,41.89,41.71,41.75, 13367
04/07/2020,21:54,41.71,41.76,41.42,41.46, 23835
04/07/2020,21:55,41.43,41.52,41.29,41.37, 19855
04/07/2020,21:55,41.4,41.64,41.31,41.56, 22995
04/07/2020,21:56,41.63,41.64,41.44,41.54, 30852
04/07/2020,21:57,41.53,41.665,41.51,41.64, 26409
04/07/2020,21:58,41.63,41.63,41.48,41.5, 39667
04/07/2020,21:59,41.5,41.53,41.435,41.525, 29066
04/07/2020,21:59,41.53,41.53,41.31,41.34, 35601
04/07/2020,22:00,41.31,41.49,41.28,41.44, 50775
04/07/2020,22:00,41.45,41.45,41.26,41.31, 52561
04/07/2020,22:01,41.29,41.36,41.23,41.32, 49833
04/07/2020,22:03,41.33,41.33,41.33,41.33, 805248
04/08/2020,15:31,42.46,42.87,42.46,42.87, 62568
04/08/2020,15:32,42.66,42.94,42.56,42.57, 12037
04/08/2020,15:33,42.66,42.897,42.46,42.48, 6205
04/08/2020,15:34,42.66,42.7,42.3,42.61, 4758
04/08/2020,15:35,42.61,42.63,42.43,42.5, 9596
04/08/2020,15:36,42.455,42.73,42.455,42.68, 1317
04/08/2020,15:36,42.77,42.89,42.442,42.583, 10222
04/08/2020,15:37,42.63,42.71,42.38,42.45, 13844
04/08/2020,15:38,42.507,42.535,42.3,42.403, 7958
04/08/2020,15:41,42.25,42.566,42.25,42.55, 3020
04/08/2020,15:42,42.42,42.51,42.37,42.5, 5712
04/08/2020,15:42,42.5,42.54,42.4,42.473, 4112
04/08/2020,15:43,42.495,42.62,42.435,42.61, 4686
04/08/2020,15:44,42.63,42.66,42.52,42.52, 3917
04/08/2020,15:45,42.58,42.58,42.35,42.41, 3495
04/08/2020,15:46,42.4,42.597,42.4,42.58, 5770
04/08/2020,15:47,42.57,42.66,42.57,42.66, 3337
04/08/2020,15:47,42.72,42.72,42.6,42.64, 8074
04/08/2020,15:48,42.61,42.64,42.53,42.57, 4940
04/08/2020,15:49,42.56,42.77,42.56,42.7, 22442
04/08/2020,15:50,42.715,42.727,42.565,42.605, 48533
04/08/2020,15:50,42.62,42.62,42.45,42.51, 4750
04/08/2020,15:51,42.5,42.64,42.5,42.58, 4199
04/08/2020,15:52,42.52,42.52,42.37,42.43, 3200
04/08/2020,15:53,42.46,42.56,42.43,42.56, 1127
04/08/2020,15:53,42.58,42.66,42.515,42.635, 3573
04/08/2020,15:54,42.669,42.69,42.59,42.67, 2350
04/08/2020,15:55,42.67,42.83,42.67,42.67, 6081
04/08/2020,15:56,42.66,42.82,42.66,42.74, 2900
04/08/2020,15:57,42.82,42.857,42.74,42.857, 1675
04/08/2020,15:59,42.77,42.9,42.7,42.86, 7215
04/08/2020,16:00,42.85,42.9,42.73,42.73, 22714
04/08/2020,16:01,42.69,42.81,42.56,42.58, 17425
04/08/2020,16:02,42.58,42.64,42.51,42.54, 8931
04/08/2020,16:03,42.59,42.707,42.55,42.707, 13670
04/08/2020,16:05,42.76,42.853,42.69,42.85, 12373
04/08/2020,16:06,42.83,42.83,42.53,42.53, 11776
04/08/2020,16:07,42.59,42.67,42.48,42.6, 20946
04/08/2020,16:08,42.595,42.63,42.47,42.47, 5601
04/08/2020,16:09,42.47,42.57,42.46,42.49, 6839
04/08/2020,16:10,42.49,42.59,42.46,42.58, 9622
04/08/2020,16:11,42.61,42.75,42.61,42.72, 5100
04/08/2020,16:12,42.75,42.86,42.75,42.79, 6756
04/08/2020,16:13,42.81,42.81,42.71,42.72, 7641
04/08/2020,16:14,42.69,42.83,42.68,42.766, 4561
04/08/2020,16:16,42.67,42.78,42.67,42.7, 5158
04/08/2020,16:17,42.72,42.78,42.64,42.78, 5096
04/08/2020,16:18,42.77,42.79,42.695,42.79, 3100
04/08/2020,16:19,42.79,42.9,42.77,42.875, 8274
04/08/2020,16:20,42.87,43.19,42.86,43.19, 26189
04/08/2020,16:21,43.2,43.21,43.075,43.17, 16948
04/08/2020,16:22,43.17,43.17,42.82,42.98, 70858
04/08/2020,16:23,42.93,43.01,42.75,42.755, 8056
04/08/2020,16:25,42.77,42.86,42.61,42.65, 9512
04/08/2020,16:26,42.69,42.69,42.37,42.53, 19911
04/08/2020,16:27,42.555,42.66,42.51,42.58, 11909
04/08/2020,16:28,42.575,42.805,42.52,42.805, 24385
04/08/2020,16:29,42.8,42.83,42.68,42.715, 18908
04/08/2020,16:30,42.72,42.775,42.66,42.71, 7185
04/08/2020,16:31,42.715,42.75,42.4,42.59, 7624
04/08/2020,16:32,42.62,42.8,42.58,42.665, 5671
04/08/2020,16:33,42.69,42.8,42.6,42.79, 2422
04/08/2020,16:34,42.787,42.93,42.69,42.77, 13327
04/08/2020,16:35,42.825,42.825,42.77,42.81, 700
04/08/2020,16:36,42.8,42.99,42.8,42.96, 10241
04/08/2020,16:37,42.94,43.06,42.92,42.98, 13344
04/08/2020,16:38,42.94,43,42.935,42.98, 3789
04/08/2020,16:39,42.93,42.93,42.671,42.75, 10709
04/08/2020,16:40,42.74,42.77,42.54,42.54, 2600
04/08/2020,16:41,42.43,42.55,42.375,42.41, 7467
04/08/2020,16:42,42.46,42.65,42.45,42.47, 30719
04/08/2020,16:43,42.43,42.46,42.2,42.21, 16228
04/08/2020,16:44,42.19,42.35,42.19,42.3, 6710
04/08/2020,16:45,42.24,42.46,42.24,42.39, 8004
04/08/2020,16:46,42.42,42.45,42.35,42.375, 28365
04/08/2020,16:47,42.4,42.61,42.38,42.492, 29842
04/08/2020,16:48,42.47,42.55,42.47,42.47, 6575
04/08/2020,16:49,42.5,42.5,42.31,42.4, 13871
04/08/2020,16:50,42.345,42.43,42.345,42.4, 3636
04/08/2020,16:51,42.41,42.56,42.36,42.54, 11066
04/08/2020,16:52,42.48,42.57,42.44,42.53, 7910
04/08/2020,16:53,42.54,42.595,42.53,42.575, 3038
04/08/2020,16:54,42.52,42.6,42.51,42.55, 2786
04/08/2020,16:55,42.55,42.68,42.55,42.64, 3901
04/08/2020,16:56,42.6,42.75,42.58,42.63, 10656
04/08/2020,16:57,42.63,42.685,42.53,42.54, 5126
04/08/2020,16:58,42.5,42.52,42.45,42.51, 2250
04/08/2020,16:59,42.54,42.675,42.52,42.65, 2721
04/08/2020,17:00,42.61,42.73,42.61,42.695, 5200
04/08/2020,17:01,42.68,42.78,42.67,42.78, 9527
04/08/2020,17:02,42.73,42.83,42.71,42.83, 6617
04/08/2020,17:03,42.8,42.83,42.74,42.76, 6775
04/08/2020,17:04,42.7,42.705,42.58,42.62, 1700
04/08/2020,17:05,42.69,42.71,42.6,42.6, 2352
04/08/2020,17:06,42.61,42.75,42.602,42.74, 6130
04/08/2020,17:07,42.734,42.82,42.7,42.7, 6473
04/08/2020,17:08,42.67,42.72,42.64,42.72, 4316
04/08/2020,17:09,42.68,42.82,42.68,42.795, 2200
04/08/2020,17:10,42.78,42.965,42.78,42.94, 5514
04/08/2020,17:11,42.925,43.07,42.87,43.06, 4200
04/08/2020,17:12,43.061,43.2,43.04,43.155, 6834
04/08/2020,17:13,43.195,43.25,43.18,43.24, 1778
04/08/2020,17:14,43.26,43.36,43.25,43.33, 6800
04/08/2020,17:15,43.369,43.369,43.26,43.27, 2362
04/08/2020,17:16,43.18,43.18,43.04,43.07, 22613
04/08/2020,17:17,43.01,43.16,43.01,43.105, 4455
04/08/2020,17:18,43.08,43.136,43.08,43.09, 2153
04/08/2020,17:19,43.02,43.08,43,43.05, 5398
04/08/2020,17:20,43.06,43.06,43,43.03, 1250
04/08/2020,17:21,43.05,43.09,42.91,43.01, 4888
04/08/2020,17:21,43.07,43.09,43.045,43.09, 1600
04/08/2020,17:23,43.03,43.03,42.87,42.92, 6968
04/08/2020,17:24,42.89,43.037,42.89,43.03, 11485
04/08/2020,17:25,43,43.01,42.92,42.95, 5250
04/08/2020,17:26,42.98,43.03,42.94,43.01, 4700
04/08/2020,17:27,43.01,43.09,43.01,43.09, 6396
04/08/2020,17:28,43.12,43.236,43.09,43.11, 10450
04/08/2020,17:29,43.11,43.13,43.08,43.11, 8000
04/08/2020,17:30,43.14,43.16,43.08,43.08, 3880
04/08/2020,17:31,43.12,43.19,43.09,43.163, 5845
04/08/2020,17:32,43.16,43.2,43.07,43.08, 14336
04/08/2020,17:33,43.07,43.13,42.94,43.02, 6800
04/08/2020,17:34,43,43.08,42.99,43.04, 2632
04/08/2020,17:35,43.03,43.1,43.03,43.095, 4165
04/08/2020,17:36,43.05,43.2,43.05,43.2, 8164
04/08/2020,17:37,43.221,43.24,43.18,43.23, 4308
04/08/2020,17:38,43.24,43.37,43.24,43.266, 19867
04/08/2020,17:39,43.266,43.36,43.258,43.327, 14492
04/08/2020,17:40,43.33,43.36,43.29,43.36, 12268
04/08/2020,17:41,43.376,43.64,43.35,43.52, 125463
04/08/2020,17:42,43.511,43.725,43.505,43.685, 58298
04/08/2020,17:43,43.676,43.75,43.59,43.59, 74739
04/08/2020,17:44,43.58,43.68,43.57,43.66, 17653
04/08/2020,17:45,43.65,43.719,43.6,43.67, 9266
04/08/2020,17:46,43.674,43.71,43.61,43.63, 8247
04/08/2020,17:47,43.64,43.8,43.61,43.8, 12633
04/08/2020,17:48,43.78,43.79,43.67,43.76, 8268
04/08/2020,17:49,43.73,43.89,43.73,43.86, 8528
04/08/2020,17:50,43.85,43.94,43.78,43.78, 8830
04/08/2020,17:51,43.78,43.815,43.61,43.61, 6883
04/08/2020,17:52,43.63,43.67,43.44,43.52, 11081
04/08/2020,17:53,43.525,43.8,43.495,43.62, 38686
04/08/2020,17:54,43.58,43.58,43.45,43.52, 3348
04/08/2020,17:55,43.517,43.65,43.51,43.52, 2800
04/08/2020,17:56,43.536,43.59,43.49,43.579, 6727
04/08/2020,17:57,43.57,43.6,43.55,43.56, 2852
04/08/2020,17:58,43.54,43.6,43.52,43.539, 8594
04/08/2020,17:59,43.535,43.535,43.36,43.386, 9161
04/08/2020,18:00,43.33,43.46,43.33,43.46, 14547
04/08/2020,18:01,43.48,43.48,43.35,43.36, 4745
04/08/2020,18:02,43.37,43.466,43.37,43.425, 6313
04/08/2020,18:03,43.44,43.47,43.4,43.43, 7430
04/08/2020,18:04,43.37,43.445,43.33,43.42, 4100
04/08/2020,18:05,43.41,43.59,43.39,43.59, 3514
04/08/2020,18:06,43.53,43.55,43.46,43.48, 10635
04/08/2020,18:07,43.48,43.53,43.46,43.506, 9024
04/08/2020,18:08,43.5,43.6,43.49,43.6, 9345
04/08/2020,18:09,43.6,43.69,43.6,43.64, 6307
04/08/2020,18:10,43.62,43.64,43.545,43.57, 3201
04/08/2020,18:11,43.555,43.59,43.47,43.535, 9401
04/08/2020,18:12,43.51,43.59,43.5,43.565, 4074
04/08/2020,18:13,43.55,43.64,43.54,43.64, 4100
04/08/2020,18:14,43.66,43.73,43.65,43.67, 4318
04/08/2020,18:15,43.66,43.73,43.64,43.725, 2789
04/08/2020,18:16,43.726,43.835,43.68,43.81, 5218
04/08/2020,18:17,43.8,43.85,43.75,43.84, 3615
04/08/2020,18:18,43.88,43.91,43.86,43.875, 3208
04/08/2020,18:19,43.9,43.97,43.9,43.97, 3996
04/08/2020,18:20,43.96,44,43.92,43.96, 6468
04/08/2020,18:21,43.98,44.05,43.94,43.94, 9346
04/08/2020,18:22,43.96,44.136,43.96,44.09, 12395
04/08/2020,18:23,44.09,44.206,44.06,44.2, 10549
04/08/2020,18:24,44.18,44.25,44.16,44.18, 10882
04/08/2020,18:25,44.18,44.25,44.16,44.25, 6664
04/08/2020,18:26,44.254,44.3,44.205,44.24, 6150
04/08/2020,18:27,44.26,44.38,44.12,44.12, 10270
04/08/2020,18:28,44.135,44.17,44.07,44.15, 5842
04/08/2020,18:29,44.15,44.25,44.127,44.19, 4622
04/08/2020,18:30,44.19,44.21,44.155,44.16, 7090
04/08/2020,18:31,44.19,44.2,44.1,44.17, 8101
04/08/2020,18:32,44.165,44.165,44.04,44.04, 3125
04/08/2020,18:33,44.06,44.1,44.05,44.05, 2890
04/08/2020,18:34,44.07,44.07,43.9,43.92, 5092
04/08/2020,18:35,43.94,43.94,43.78,43.83, 9016
04/08/2020,18:36,43.86,43.91,43.81,43.842, 7462
04/08/2020,18:37,43.86,43.88,43.5,43.53, 10450
04/08/2020,18:38,43.527,43.58,43.43,43.535, 10141
04/08/2020,18:39,43.505,43.61,43.46,43.58, 9076
04/08/2020,18:40,43.57,43.735,43.54,43.735, 5890
04/08/2020,18:41,43.72,43.905,43.72,43.88, 15946
04/08/2020,18:42,43.9,43.92,43.81,43.861, 4050
04/08/2020,18:43,43.88,43.9,43.8,43.845, 9900
04/08/2020,18:44,43.84,43.95,43.8,43.93, 14133
04/08/2020,18:45,43.95,43.976,43.9,43.92, 6950
04/08/2020,18:46,43.95,43.98,43.92,43.96, 3805
04/08/2020,18:47,43.94,44.06,43.9,44.003, 9275
04/08/2020,18:48,44.015,44.03,43.95,43.97, 3402
04/08/2020,18:49,43.97,44.01,43.94,43.95, 5701
04/08/2020,18:50,43.93,44.12,43.93,44.07, 10505
04/08/2020,18:51,44.05,44.05,43.96,43.988, 1100
04/08/2020,18:52,43.99,43.99,43.82,43.87, 3214
04/08/2020,18:53,43.88,43.97,43.877,43.94, 3184
04/08/2020,18:54,43.94,44.06,43.94,43.98, 4501
04/08/2020,18:55,43.98,43.99,43.83,43.95, 7598
04/08/2020,18:56,43.98,43.98,43.91,43.92, 4426
04/08/2020,18:57,43.92,43.92,43.82,43.88, 10432
04/08/2020,18:58,43.86,43.993,43.86,43.95, 12410
04/08/2020,18:59,43.95,43.955,43.86,43.91, 6754
04/08/2020,19:00,43.9,43.95,43.89,43.89, 10273
04/08/2020,19:01,43.903,43.99,43.88,43.92, 4090
04/08/2020,19:02,43.88,43.89,43.7,43.89, 14406
04/08/2020,19:03,43.9,43.98,43.79,43.81, 34429
04/08/2020,19:04,43.82,43.88,43.72,43.77, 26428
04/08/2020,19:05,43.76,43.82,43.71,43.75, 6300
04/08/2020,19:06,43.75,43.75,43.65,43.67, 9231
04/08/2020,19:07,43.65,43.68,43.61,43.615, 8600
04/08/2020,19:08,43.58,43.73,43.57,43.68, 4864
04/08/2020,19:09,43.65,43.685,43.624,43.64, 5100
04/08/2020,19:10,43.645,43.66,43.565,43.605, 5118
04/08/2020,19:11,43.53,43.54,43.43,43.44, 5711
04/08/2020,19:12,43.43,43.911,43.3,43.41, 17790
04/08/2020,19:13,43.46,43.55,43.455,43.5, 4088
04/08/2020,19:14,43.52,43.525,43.43,43.43, 8287
04/08/2020,19:15,43.475,43.64,43.447,43.635, 6524
04/08/2020,19:16,43.665,43.83,43.62,43.755, 6781
04/08/2020,19:17,43.74,43.81,43.68,43.755, 15186
04/08/2020,19:18,43.76,43.89,43.75,43.89, 4858
04/08/2020,19:19,43.89,44,43.86,43.89, 11217
04/08/2020,19:20,43.886,43.886,43.75,43.88, 4484
04/08/2020,19:21,43.85,43.91,43.78,43.84, 6001
04/08/2020,19:22,43.86,43.87,43.73,43.73, 4600
04/08/2020,19:23,43.755,43.83,43.7,43.82, 8112
04/08/2020,19:24,43.8,43.81,43.77,43.81, 2107
04/08/2020,19:25,43.82,43.83,43.75,43.77, 5010
04/08/2020,19:26,43.75,43.75,43.67,43.69, 6512
04/08/2020,19:27,43.691,43.711,43.606,43.67, 8531
04/08/2020,19:28,43.66,43.67,43.6,43.66, 4867
04/08/2020,19:29,43.67,43.67,43.47,43.48, 8539
04/08/2020,19:30,43.5,43.51,43.41,43.448, 4246
04/08/2020,19:31,43.45,43.56,43.42,43.56, 4599
04/08/2020,19:32,43.55,43.6,43.42,43.54, 24891
04/08/2020,19:33,43.53,43.545,43.365,43.39, 7742
04/08/2020,19:34,43.4,43.425,43.3,43.315, 4182
04/08/2020,19:35,43.29,43.337,43.19,43.24, 8339
04/08/2020,19:36,43.26,43.26,43.15,43.16, 7869
04/08/2020,19:37,43.13,43.169,43.12,43.14, 8050
04/08/2020,19:38,43.15,43.17,43.1,43.17, 4744
04/08/2020,19:39,43.156,43.21,43.09,43.11, 9162
04/08/2020,19:40,43.08,43.12,43.05,43.12, 11716
04/08/2020,19:41,43.12,43.12,43,43.06, 10806
04/08/2020,19:42,43.1,43.13,43.03,43.07, 2610
04/08/2020,19:43,43.07,43.16,43.07,43.15, 3157
04/08/2020,19:44,43.13,43.3,43.11,43.19, 16457
04/08/2020,19:45,43.26,43.29,43.23,43.24, 4800
04/08/2020,19:46,43.23,43.38,43.23,43.38, 4450
04/08/2020,19:47,43.39,43.49,43.33,43.33, 2176
04/08/2020,19:48,43.428,43.47,43.4,43.41, 3963
04/08/2020,19:49,43.41,43.445,43.385,43.4, 1250
04/08/2020,19:50,43.395,43.44,43.351,43.39, 2974
04/08/2020,19:51,43.36,43.47,43.35,43.465, 2661
04/08/2020,19:52,43.44,43.535,43.44,43.535, 3300
04/08/2020,19:53,43.53,43.56,43.49,43.53, 1744
04/08/2020,19:54,43.485,43.58,43.45,43.57, 3850
04/08/2020,19:55,43.61,43.675,43.58,43.62, 2765
04/08/2020,19:56,43.64,43.64,43.59,43.6, 4471
04/08/2020,19:57,43.59,43.605,43.51,43.51, 2418
04/08/2020,19:58,43.54,43.56,43.45,43.54, 14124
04/08/2020,19:59,43.535,43.605,43.5,43.605, 5348
04/08/2020,20:00,43.64,43.69,43.53,43.53, 7440
04/08/2020,20:01,43.48,43.6,43.48,43.57, 5524
04/08/2020,20:02,43.6,43.73,43.59,43.68, 7464
04/08/2020,20:03,43.67,43.7,43.6,43.61, 5461
04/08/2020,20:04,43.61,43.64,43.53,43.57, 9601
04/08/2020,20:05,43.56,43.738,43.45,43.65, 22065
04/08/2020,20:06,43.68,43.69,43.618,43.635, 5614
04/08/2020,20:07,43.63,43.635,43.52,43.53, 4600
04/08/2020,20:08,43.515,43.64,43.515,43.56, 5581
04/08/2020,20:09,43.56,43.572,43.41,43.49, 4386
04/08/2020,20:10,43.52,43.54,43.45,43.53, 4231
04/08/2020,20:11,43.55,43.69,43.55,43.58, 5958
04/08/2020,20:12,43.589,43.64,43.5,43.61, 3300
04/08/2020,20:13,43.605,43.605,43.46,43.51, 4877
04/08/2020,20:14,43.505,43.512,43.46,43.46, 3094
04/08/2020,20:15,43.49,43.68,43.49,43.62, 8186
04/08/2020,20:16,43.62,43.74,43.62,43.68, 15211
04/08/2020,20:17,43.657,44.04,43.657,43.86, 57727
04/08/2020,20:18,43.86,43.95,43.72,43.87, 27148
04/08/2020,20:19,43.85,44.05,43.84,43.84, 19357
04/08/2020,20:20,43.9,44.07,43.9,43.98, 18598
04/08/2020,20:21,44.02,44.13,43.9,44.04, 13733
04/08/2020,20:22,44,44.06,43.965,43.99, 3577
04/08/2020,20:23,43.93,43.99,43.76,43.775, 21518
04/08/2020,20:24,43.83,43.97,43.81,43.928, 6915
04/08/2020,20:25,43.97,44.12,43.92,44.07, 14900
04/08/2020,20:26,44.07,44.16,44.07,44.07, 6701
04/08/2020,20:27,44.097,44.17,44.08,44.13, 8985
04/08/2020,20:28,44.15,44.29,44.13,44.29, 7682
04/08/2020,20:29,44.24,44.28,44.12,44.125, 6818
04/08/2020,20:30,44.18,44.339,44.127,44.339, 6654
04/08/2020,20:31,44.29,44.35,44.26,44.29, 5001
04/08/2020,20:32,44.26,44.33,44.24,44.31, 2967
04/08/2020,20:33,44.325,44.44,44.31,44.43, 9433
04/08/2020,20:34,44.45,44.46,44.41,44.45, 7450
04/08/2020,20:35,44.435,44.45,44.385,44.45, 6391
04/08/2020,20:36,44.44,44.48,44.43,44.457, 5952
04/08/2020,20:37,44.44,44.6,44.431,44.55, 10688
04/08/2020,20:38,44.52,44.54,44.39,44.42, 20793
04/08/2020,20:39,44.43,44.44,44.38,44.41, 6557
04/08/2020,20:40,44.4,44.44,44.28,44.34, 31210
04/08/2020,20:41,44.34,44.434,44.24,44.43, 63987
04/08/2020,20:42,44.46,44.49,44.3,44.4, 25322
04/08/2020,20:43,44.42,44.5,44.4,44.48, 23841
04/08/2020,20:44,44.475,44.49,44.39,44.454, 26186
04/08/2020,20:45,44.46,44.54,44.38,44.39, 19464
04/08/2020,20:46,44.4,44.44,44.37,44.41, 4597
04/08/2020,20:47,44.42,44.46,44.4,44.428, 2002
04/08/2020,20:48,44.41,44.489,44.41,44.43, 4000
04/08/2020,20:49,44.411,44.411,44.306,44.33, 10336
04/08/2020,20:50,44.3,44.32,44.235,44.3, 5619
04/08/2020,20:51,44.31,44.355,44.29,44.35, 4906
04/08/2020,20:52,44.35,44.49,44.35,44.47, 11942
04/08/2020,20:53,44.45,44.54,44.41,44.54, 4370
04/08/2020,20:54,44.55,44.62,44.52,44.52, 10408
04/08/2020,20:55,44.52,44.63,44.52,44.61, 4175
04/08/2020,20:56,44.61,44.77,44.61,44.65, 7118
04/08/2020,20:57,44.68,44.81,44.6,44.645, 10087
04/08/2020,20:58,44.64,44.722,44.6,44.63, 13103
04/08/2020,20:59,44.63,44.67,44.6,44.64, 14731
04/08/2020,21:00,44.64,44.76,44.6,44.76, 7604
04/08/2020,21:01,44.77,44.79,44.71,44.71, 12610
04/08/2020,21:02,44.74,44.85,44.74,44.85, 10009
04/08/2020,21:03,44.87,44.87,44.78,44.79, 14880
04/08/2020,21:04,44.78,44.79,44.737,44.78, 20193
04/08/2020,21:05,44.77,44.79,44.74,44.79, 12450
04/08/2020,21:06,44.79,44.86,44.79,44.84, 9060
04/08/2020,21:07,44.84,44.94,44.82,44.94, 11254
04/08/2020,21:08,44.96,45.09,44.946,45.02, 22343
04/08/2020,21:09,45.02,45.19,45,45.09, 14869
04/08/2020,21:10,45.1,45.23,45.07,45.09, 18960
04/08/2020,21:11,45.1,45.2,45.02,45.115, 15359
04/08/2020,21:12,45.11,45.14,45.05,45.05, 11082
04/08/2020,21:13,45.08,45.08,44.85,44.86, 10636
04/08/2020,21:14,44.86,44.86,44.37,44.57, 73845
04/08/2020,21:15,44.53,44.65,44.47,44.59, 9868
04/08/2020,21:16,44.58,44.68,44.48,44.6, 18024
04/08/2020,21:17,44.61,44.735,44.61,44.69, 7454
04/08/2020,21:18,44.68,44.71,44.62,44.64, 8553
04/08/2020,21:19,44.64,44.66,44.59,44.62, 13407
04/08/2020,21:20,44.609,44.66,44.52,44.64, 16036
04/08/2020,21:21,44.61,44.69,44.57,44.675, 8174
04/08/2020,21:22,44.66,44.68,44.55,44.56, 7486
04/08/2020,21:23,44.555,44.57,44.365,44.37, 14954
04/08/2020,21:24,44.38,44.47,44.37,44.38, 14064
04/08/2020,21:25,44.32,44.44,44.32,44.38, 8730
04/08/2020,21:26,44.37,44.45,44.3,44.45, 17511
04/08/2020,21:27,44.43,44.575,44.43,44.46, 31432
04/08/2020,21:28,44.48,44.55,44.42,44.42, 10501
04/08/2020,21:29,44.43,44.45,44.4,44.4, 11183
04/08/2020,21:30,44.4,44.53,44.395,44.455, 12444
04/08/2020,21:31,44.442,44.57,44.43,44.57, 11987
04/08/2020,21:32,44.58,44.78,44.58,44.72, 12718
04/08/2020,21:33,44.7,44.87,44.7,44.81, 13817
04/08/2020,21:34,44.82,44.91,44.73,44.755, 10725
04/08/2020,21:35,44.76,44.85,44.76,44.79, 14424
04/08/2020,21:36,44.8,44.81,44.66,44.73, 20066
04/08/2020,21:37,44.71,44.8,44.7,44.74, 21838
04/08/2020,21:38,44.74,44.85,44.725,44.8, 17455
04/08/2020,21:39,44.775,44.93,44.76,44.812, 19615
04/08/2020,21:40,44.82,44.95,44.82,44.93, 15768
04/08/2020,21:41,44.91,44.91,44.75,44.82, 25921
04/08/2020,21:42,44.84,44.93,44.81,44.85, 33102
04/08/2020,21:43,44.86,44.91,44.84,44.892, 25990
04/08/2020,21:44,44.88,44.99,44.88,44.94, 23513
04/08/2020,21:45,44.955,45.08,44.94,44.95, 23343
04/08/2020,21:46,44.955,45,44.871,44.895, 15886
04/08/2020,21:47,44.92,45.01,44.82,44.82, 23296
04/08/2020,21:48,44.8,44.955,44.74,44.8, 20498
04/08/2020,21:49,44.79,44.955,44.77,44.885, 19969
04/08/2020,21:50,44.88,44.949,44.82,44.92, 22506
04/08/2020,21:51,44.92,45.12,44.87,45.05, 38333
04/08/2020,21:51,45.05,45.35,44.85,45.25, 28802
04/08/2020,21:52,45.27,45.33,45.02,45.1, 18322
04/08/2020,21:52,45.09,45.153,45.07,45.09, 16106
04/08/2020,21:53,45.1,45.13,45,45.13, 19524
04/08/2020,21:54,45.14,45.14,44.97,45.01, 11727
04/08/2020,21:54,45.01,45.09,44.93,45.07, 38696
04/08/2020,21:55,45.06,45.18,45.06,45.17, 26287
04/08/2020,21:56,45.17,45.303,45.09,45.29, 45500
04/08/2020,21:56,45.3,45.39,45.18,45.25, 69760
04/08/2020,21:57,45.25,45.31,44.914,45.055, 79827
04/08/2020,21:58,45.055,45.3,44.97,45.28, 100886
04/08/2020,21:59,45.285,45.3,45.26,45.285, 65691
04/08/2020,21:59,45.28,45.385,45.275,45.35, 67157
04/08/2020,22:00,45.34,45.35,45.31,45.31, 77988
04/08/2020,22:00,45.32,45.39,45.3,45.31, 89649
04/08/2020,22:03,45.3,45.34,45.29,45.29, 1147281
04/09/2020,15:31,47.25,47.37,47.09,47.37, 126458
04/09/2020,15:31,47.37,47.56,47.17,47.21, 28796
04/09/2020,15:32,47.24,47.3,46.68,46.84, 23298
04/09/2020,15:32,47,47.01,46.51,46.679, 20943
04/09/2020,15:33,46.71,47.025,46.69,47, 19698
04/09/2020,15:34,46.87,46.87,46.55,46.635, 12227
04/09/2020,15:37,46.17,46.34,46.14,46.32, 5971
04/09/2020,15:37,46.278,46.31,45.75,45.785, 20162
04/09/2020,15:38,45.745,45.79,45.34,45.41, 31555
04/09/2020,15:39,45.41,45.57,45.099,45.205, 25397
04/09/2020,15:39,45.15,45.34,45.09,45.225, 7480
04/09/2020,15:40,45.22,45.22,45.07,45.09, 15902
04/09/2020,15:40,45.06,45.06,44.81,44.84, 26521
04/09/2020,15:41,44.845,45.13,44.845,45.01, 21337
04/09/2020,15:41,45.056,45.36,45.056,45.337, 8405
04/09/2020,15:42,45.36,45.64,45.35,45.575, 27031
04/09/2020,15:43,45.54,45.73,45.54,45.65, 23595
04/09/2020,15:43,45.53,45.64,45.5,45.535, 21564
04/09/2020,15:44,45.59,45.62,45.46,45.49, 9529
04/09/2020,15:45,45.49,45.76,45.451,45.76, 9648
04/09/2020,15:45,45.806,45.895,45.615,45.678, 7324
04/09/2020,15:46,45.7,45.71,45.357,45.62, 9727
04/09/2020,15:47,45.555,45.58,45.38,45.532, 7275
04/09/2020,15:47,45.55,45.58,45.28,45.306, 8568
04/09/2020,15:48,45.3,45.66,45.3,45.63, 7277
04/09/2020,15:49,45.525,45.77,45.525,45.77, 8557
04/09/2020,15:49,45.677,45.82,45.675,45.675, 4718
04/09/2020,15:50,45.682,45.855,45.56,45.855, 13334
04/09/2020,15:51,45.785,45.94,45.7,45.92, 13665
04/09/2020,15:52,45.82,45.98,45.82,45.925, 4751
04/09/2020,15:52,45.98,46.12,45.85,46, 10455
04/09/2020,15:53,46,46.1,45.955,45.97, 7280
04/09/2020,15:53,45.971,46.13,45.97,46.004, 7972
04/09/2020,15:54,46.02,46.11,45.88,45.935, 9699
04/09/2020,15:55,45.96,46,45.85,45.875, 11817
04/09/2020,15:55,45.875,46.02,45.87,45.96, 6731
04/09/2020,15:56,45.985,46.05,45.91,45.91, 13366
04/09/2020,15:57,45.92,45.92,45.77,45.83, 5759
04/09/2020,15:57,45.81,45.865,45.73,45.81, 39564
04/09/2020,15:58,45.82,45.82,45.47,45.5, 11199
04/09/2020,15:59,45.45,45.7,45.45,45.505, 4011
04/09/2020,15:59,45.44,45.53,45.34,45.34, 7300
04/09/2020,16:00,45.392,45.392,45.25,45.295, 7587
04/09/2020,16:01,45.277,45.7,45.25,45.535, 29728
04/09/2020,16:01,45.42,45.535,45.2,45.5, 8424
04/09/2020,16:02,45.47,45.57,45.47,45.57, 2415
04/09/2020,16:02,45.564,45.62,45.31,45.39, 4748
04/09/2020,16:03,45.385,45.42,45.26,45.38, 11750
04/09/2020,16:04,45.38,45.54,45.38,45.54, 4400
04/09/2020,16:04,45.45,45.66,45.44,45.46, 7750
04/09/2020,16:05,45.46,45.521,45.33,45.341, 25200
04/09/2020,16:05,45.3,45.33,45.15,45.208, 9481
04/09/2020,16:06,45.16,45.179,44.54,44.63, 16686
04/09/2020,16:06,44.71,45.015,44.71,44.86, 8112
04/09/2020,16:07,44.79,44.855,44.66,44.75, 9434
04/09/2020,16:08,44.85,44.93,44.834,44.93, 4800
04/09/2020,16:08,44.9,45.01,44.78,44.974, 10615
04/09/2020,16:09,45.02,45.07,44.96,44.965, 13540
04/09/2020,16:10,45.03,45.1,45.01,45.07, 10131
04/09/2020,16:10,45.06,45.06,44.95,44.97, 5150
04/09/2020,16:11,44.95,45.195,44.95,45.17, 6045
04/09/2020,16:12,45.13,45.2,45.055,45.2, 7348
04/09/2020,16:13,45.21,45.25,45.14,45.19, 15085
04/09/2020,16:13,45.199,45.33,45.151,45.24, 7929
04/09/2020,16:14,45.24,45.28,45.16,45.25, 4386
04/09/2020,16:15,45.255,45.32,45.21,45.225, 8769
04/09/2020,16:16,45.225,45.32,45.21,45.275, 17625
04/09/2020,16:16,45.275,45.275,45.15,45.26, 6678
04/09/2020,16:17,45.32,45.47,45.24,45.35, 8300
04/09/2020,16:17,45.39,45.46,45.369,45.385, 3900
04/09/2020,16:18,45.34,45.34,45.19,45.19, 6975
04/09/2020,16:19,45.13,45.21,45.08,45.15, 3668
04/09/2020,16:20,45.111,45.22,45.111,45.201, 8563
04/09/2020,16:20,45.22,45.24,45.075,45.1, 17031
04/09/2020,16:21,45.08,45.105,44.855,45.018, 10161
04/09/2020,16:22,44.97,45.01,44.77,44.81, 8330
04/09/2020,16:22,44.86,44.89,44.805,44.83, 7028
04/09/2020,16:23,44.847,44.847,44.69,44.69, 11383
04/09/2020,16:24,44.69,44.69,44.37,44.37, 5566
04/09/2020,16:24,44.41,44.49,44.3,44.37, 8501
04/09/2020,16:24,44.33,44.37,44.215,44.215, 9501
04/09/2020,16:25,44.37,44.74,44.32,44.58, 24178
04/09/2020,16:26,44.64,44.77,44.4,44.54, 39552
04/09/2020,16:26,44.49,44.53,44.31,44.46, 14995
04/09/2020,16:27,44.33,44.47,44.31,44.46, 8460
04/09/2020,16:28,44.46,44.67,44.449,44.64, 12659
04/09/2020,16:28,44.61,45.16,44.61,45.09, 30465
04/09/2020,16:29,45.135,45.275,44.83,44.84, 20492
04/09/2020,16:30,44.93,45.195,44.914,45.1, 28213
04/09/2020,16:30,45.13,45.285,45.13,45.16, 5219
04/09/2020,16:31,45.134,45.28,45.03,45.08, 32308
04/09/2020,16:32,45.1,45.35,45.08,45.35, 118066
04/09/2020,16:32,45.31,45.38,45.15,45.25, 96671
04/09/2020,16:33,45.3,45.58,45.26,45.555, 46911
04/09/2020,16:34,45.55,45.92,45.54,45.8, 28800
04/09/2020,16:34,45.78,45.875,45.75,45.81, 51318
04/09/2020,16:35,45.845,46.04,45.77,46, 56855
04/09/2020,16:36,46,46.29,45.91,46.12, 105505
04/09/2020,16:36,46.13,46.22,45.89,45.945, 51866
04/09/2020,16:37,45.977,46,45.65,45.94, 12569
04/09/2020,16:38,45.87,45.87,45.68,45.75, 28470
04/09/2020,16:38,45.745,45.78,45.57,45.58, 15897
04/09/2020,16:39,45.57,45.64,45.55,45.61, 12138
04/09/2020,16:40,45.64,45.65,45.53,45.62, 30134
04/09/2020,16:40,45.63,45.77,45.54,45.66, 16899
04/09/2020,16:41,45.62,45.62,45.38,45.45, 13545
04/09/2020,16:42,45.458,45.52,45.27,45.28, 53479
04/09/2020,16:43,45.32,45.375,45.1,45.25, 27766
04/09/2020,16:43,45.25,45.28,45.07,45.2, 35502
04/09/2020,16:44,45.15,45.22,45.104,45.17, 6700
04/09/2020,16:44,45.161,45.25,45.161,45.25, 10226
04/09/2020,16:45,45.25,45.39,45.217,45.355, 46120
04/09/2020,16:46,45.386,45.43,45.33,45.36, 151487
04/09/2020,16:46,45.34,45.395,45.25,45.35, 28905
04/09/2020,16:47,45.345,45.43,45.2,45.375, 24966
04/09/2020,16:48,45.375,45.55,45.26,45.55, 10621
04/09/2020,16:49,45.5,45.59,45.24,45.24, 28360
04/09/2020,16:50,45.285,45.37,45.22,45.25, 62208
04/09/2020,16:51,45.26,45.29,45.091,45.25, 25426
04/09/2020,16:53,45.21,45.28,45.05,45.05, 13104
04/09/2020,16:54,45.08,45.3,45,45.28, 68025
04/09/2020,16:55,45.28,45.31,45.14,45.22, 8940
04/09/2020,16:56,45.18,45.7,45.11,45.67, 6852
04/09/2020,16:58,45.72,45.81,45.58,45.755, 11719
04/09/2020,16:59,45.77,45.8,45.485,45.775, 27363
