02/03/2020,09:01,1.535,1.535,1.535,1.535, 643
02/03/2020,09:05,1.55,1.55,1.5495,1.5495, 647
02/03/2020,09:07,1.553,1.557,1.553,1.557, 4774
02/03/2020,09:08,1.554,1.554,1.5515,1.5515, 1697
02/03/2020,09:10,1.5515,1.5515,1.551,1.551, 5417
02/03/2020,09:14,1.5475,1.5475,1.547,1.547, 5431
02/03/2020,09:16,1.542,1.544,1.537,1.5385, 18625
02/03/2020,09:17,1.5365,1.5365,1.535,1.5355, 5094
02/03/2020,09:19,1.5345,1.536,1.5345,1.536, 4208
02/03/2020,09:23,1.533,1.533,1.533,1.533, 277
02/03/2020,09:28,1.5355,1.5355,1.5355,1.5355, 240
02/03/2020,09:30,1.538,1.538,1.538,1.538, 13
02/03/2020,09:39,1.539,1.5395,1.539,1.5395, 76
02/03/2020,09:40,1.541,1.541,1.541,1.541, 550
02/03/2020,09:50,1.544,1.5445,1.544,1.5445, 1065
02/03/2020,09:51,1.5465,1.5465,1.5465,1.5465, 72
02/03/2020,09:53,1.5485,1.5485,1.5485,1.5485, 65
02/03/2020,09:56,1.5485,1.5485,1.5485,1.5485, 2
02/03/2020,09:57,1.5495,1.5495,1.5495,1.5495, 102
02/03/2020,10:03,1.546,1.546,1.5455,1.546, 3496
02/03/2020,10:04,1.5465,1.5465,1.5465,1.5465, 69
02/03/2020,10:06,1.548,1.5485,1.548,1.5485, 441
02/03/2020,10:09,1.547,1.547,1.5465,1.547, 7178
02/03/2020,10:14,1.545,1.545,1.545,1.545, 5671
02/03/2020,10:31,1.5475,1.5475,1.5475,1.5475, 2201
02/03/2020,10:32,1.5475,1.5475,1.5475,1.5475, 2362
02/03/2020,10:37,1.5455,1.5455,1.5445,1.5445, 4384
02/03/2020,10:38,1.5445,1.5445,1.5425,1.5425, 6354
02/03/2020,10:38,1.5415,1.542,1.5415,1.542, 2152
02/03/2020,10:43,1.542,1.5425,1.542,1.5425, 3542
02/03/2020,10:51,1.5425,1.5425,1.5425,1.5425, 3322
02/03/2020,10:54,1.542,1.542,1.5415,1.5415, 3358
02/03/2020,10:54,1.542,1.542,1.542,1.542, 420
02/03/2020,10:56,1.5435,1.5435,1.5435,1.5435, 625
02/03/2020,10:57,1.541,1.5415,1.541,1.5415, 3500
02/03/2020,10:58,1.5415,1.5415,1.541,1.541, 1359
02/03/2020,10:58,1.542,1.542,1.542,1.542, 148
02/03/2020,11:01,1.542,1.542,1.542,1.542, 75
02/03/2020,11:07,1.5435,1.544,1.5435,1.544, 2488
02/03/2020,11:12,1.545,1.545,1.545,1.545, 1855
02/03/2020,11:14,1.547,1.547,1.547,1.547, 850
02/03/2020,11:17,1.5475,1.548,1.5475,1.548, 11204
02/03/2020,11:25,1.5505,1.5505,1.5495,1.5495, 4459
02/03/2020,11:27,1.5495,1.5495,1.5495,1.5495, 2840
02/03/2020,11:29,1.5505,1.5505,1.5505,1.5505, 5446
02/03/2020,11:29,1.5505,1.552,1.5505,1.552, 9110
02/03/2020,11:31,1.552,1.552,1.552,1.552, 1290
02/03/2020,11:32,1.551,1.551,1.5505,1.5505, 8503
02/03/2020,11:33,1.5505,1.551,1.5505,1.551, 13649
02/03/2020,11:33,1.5515,1.5515,1.5515,1.5515, 1500
02/03/2020,11:38,1.552,1.552,1.552,1.552, 1316
02/03/2020,11:39,1.5525,1.5525,1.5525,1.5525, 2710
02/03/2020,11:46,1.553,1.553,1.553,1.553, 8914
02/03/2020,11:46,1.552,1.552,1.552,1.552, 4095
02/03/2020,11:49,1.5515,1.5545,1.5515,1.5545, 9044
02/03/2020,11:51,1.555,1.555,1.555,1.555, 73
02/03/2020,11:52,1.5555,1.5565,1.5555,1.5565, 2060
02/03/2020,11:55,1.5565,1.5565,1.5565,1.5565, 7745
02/03/2020,11:56,1.556,1.5565,1.556,1.5565, 10567
02/03/2020,11:57,1.5555,1.5555,1.554,1.554, 16527
02/03/2020,11:58,1.554,1.554,1.553,1.553, 4365
02/03/2020,11:59,1.5535,1.555,1.5535,1.555, 13033
02/03/2020,12:00,1.5555,1.556,1.5555,1.556, 3152
02/03/2020,12:01,1.556,1.556,1.5555,1.5555, 2969
02/03/2020,12:02,1.555,1.555,1.5545,1.5545, 10246
02/03/2020,12:03,1.554,1.554,1.554,1.554, 60
02/03/2020,12:04,1.554,1.556,1.554,1.556, 9708
02/03/2020,12:07,1.556,1.556,1.556,1.556, 721
02/03/2020,12:08,1.556,1.556,1.5535,1.5535, 16883
02/03/2020,12:12,1.553,1.553,1.553,1.553, 3996
02/03/2020,12:13,1.552,1.552,1.552,1.552, 1698
02/03/2020,12:14,1.552,1.552,1.551,1.551, 3677
02/03/2020,12:17,1.551,1.551,1.551,1.551, 1604
02/03/2020,12:18,1.5505,1.5515,1.5505,1.5515, 9359
02/03/2020,12:20,1.5515,1.5515,1.5515,1.5515, 490
02/03/2020,12:21,1.551,1.551,1.5505,1.5505, 6875
02/03/2020,12:24,1.5505,1.5505,1.5505,1.5505, 3728
02/03/2020,12:27,1.5495,1.5495,1.5495,1.5495, 129
02/03/2020,12:30,1.5475,1.5475,1.5475,1.5475, 555
02/03/2020,12:32,1.5465,1.5465,1.546,1.546, 2692
02/03/2020,12:35,1.5435,1.5435,1.543,1.543, 25382
02/03/2020,12:36,1.542,1.542,1.5415,1.5415, 1335
02/03/2020,12:37,1.541,1.541,1.5395,1.5395, 1081
02/03/2020,12:38,1.539,1.5395,1.5385,1.5395, 4937
02/03/2020,12:43,1.54,1.54,1.54,1.54, 7610
02/03/2020,12:48,1.541,1.542,1.541,1.542, 4803
02/03/2020,12:50,1.541,1.541,1.541,1.541, 13
02/03/2020,12:51,1.542,1.542,1.5415,1.5415, 3498
02/03/2020,12:56,1.5405,1.5405,1.5405,1.5405, 3
02/03/2020,12:59,1.5395,1.5395,1.5395,1.5395, 1427
02/03/2020,13:00,1.539,1.539,1.539,1.539, 1420
02/03/2020,13:03,1.536,1.539,1.536,1.539, 8683
02/03/2020,13:13,1.539,1.539,1.5385,1.5385, 8680
02/03/2020,13:17,1.54,1.5405,1.54,1.54, 9752
02/03/2020,13:18,1.54,1.54,1.54,1.54, 1738
02/03/2020,13:20,1.5385,1.5385,1.538,1.5385, 6316
02/03/2020,13:21,1.539,1.539,1.539,1.539, 2210
02/03/2020,13:22,1.5385,1.5385,1.538,1.5385, 8397
02/03/2020,13:30,1.538,1.538,1.538,1.538, 679
02/03/2020,13:31,1.5375,1.5375,1.5375,1.5375, 679
02/03/2020,13:33,1.537,1.537,1.5355,1.5355, 3304
02/03/2020,13:36,1.534,1.534,1.534,1.534, 656
02/03/2020,13:41,1.5335,1.5335,1.5335,1.5335, 6847
02/03/2020,13:42,1.533,1.5335,1.533,1.533, 2998
02/03/2020,13:43,1.5325,1.5325,1.5325,1.5325, 917
02/03/2020,13:43,1.5325,1.5325,1.5325,1.5325, 721
02/03/2020,13:45,1.5325,1.5325,1.5325,1.5325, 47
02/03/2020,13:47,1.53,1.53,1.53,1.53, 721
02/03/2020,13:49,1.5315,1.532,1.5315,1.532, 7667
02/03/2020,13:51,1.532,1.532,1.5315,1.5315, 5859
02/03/2020,13:52,1.5315,1.5315,1.5315,1.5315, 299
02/03/2020,13:55,1.531,1.531,1.531,1.531, 1600
02/03/2020,13:56,1.531,1.531,1.531,1.531, 1720
02/03/2020,13:57,1.5315,1.5315,1.5315,1.5315, 3569
02/03/2020,14:01,1.5325,1.5325,1.5325,1.5325, 1161
02/03/2020,14:08,1.5335,1.5335,1.5315,1.5325, 10428
02/03/2020,14:10,1.5305,1.5305,1.53,1.53, 6891
02/03/2020,14:12,1.5295,1.53,1.528,1.53, 24366
02/03/2020,14:13,1.5295,1.5305,1.529,1.5305, 16584
02/03/2020,14:14,1.5315,1.5315,1.5295,1.5295, 11383
02/03/2020,14:16,1.531,1.531,1.531,1.531, 1807
02/03/2020,14:23,1.5325,1.5325,1.531,1.531, 1713
02/03/2020,14:24,1.531,1.531,1.531,1.531, 647
02/03/2020,14:27,1.532,1.532,1.532,1.532, 1950
02/03/2020,14:31,1.533,1.533,1.533,1.533, 1723
02/03/2020,14:37,1.5325,1.533,1.5315,1.5315, 8731
02/03/2020,14:39,1.5295,1.5295,1.5295,1.5295, 1329
02/03/2020,14:41,1.5285,1.5295,1.5285,1.5295, 3951
02/03/2020,14:41,1.528,1.528,1.528,1.528, 78
02/03/2020,14:43,1.5275,1.5275,1.527,1.527, 4723
02/03/2020,14:45,1.5275,1.529,1.5275,1.5285, 12133
02/03/2020,14:47,1.5285,1.5285,1.5285,1.5285, 2464
02/03/2020,14:52,1.529,1.529,1.529,1.529, 1735
02/03/2020,14:58,1.5295,1.53,1.5295,1.53, 13348
02/03/2020,15:01,1.5305,1.5305,1.5305,1.5305, 1379
02/03/2020,15:03,1.53,1.53,1.53,1.53, 5952
02/03/2020,15:12,1.5305,1.5305,1.5305,1.5305, 3279
02/03/2020,15:18,1.531,1.531,1.531,1.531, 603
02/03/2020,15:21,1.5305,1.531,1.5305,1.531, 5204
02/03/2020,15:21,1.5315,1.5315,1.5315,1.5315, 655
02/03/2020,15:23,1.533,1.5335,1.533,1.5335, 3657
02/03/2020,15:24,1.533,1.533,1.533,1.533, 211
02/03/2020,15:29,1.533,1.5335,1.533,1.5335, 3691
02/03/2020,15:30,1.5335,1.5335,1.5335,1.5335, 366
02/03/2020,15:31,1.5335,1.535,1.5335,1.535, 8729
02/03/2020,15:32,1.5345,1.5345,1.534,1.534, 3998
02/03/2020,15:33,1.5335,1.5335,1.533,1.533, 7491
02/03/2020,15:34,1.5335,1.5335,1.5335,1.5335, 4197
02/03/2020,15:35,1.534,1.534,1.534,1.534, 1465
02/03/2020,15:37,1.5345,1.5345,1.5345,1.5345, 3981
02/03/2020,15:39,1.5365,1.5365,1.5365,1.5365, 5094
02/03/2020,15:42,1.5365,1.5365,1.5365,1.5365, 346
02/03/2020,15:42,1.536,1.536,1.536,1.536, 612
02/03/2020,15:46,1.536,1.537,1.536,1.537, 9027
02/03/2020,15:47,1.5375,1.5375,1.5375,1.5375, 3645
02/03/2020,15:49,1.5365,1.537,1.5365,1.537, 6286
02/03/2020,15:57,1.538,1.538,1.538,1.538, 2597
02/03/2020,15:58,1.538,1.5385,1.538,1.5385, 5164
02/03/2020,16:01,1.5375,1.5395,1.5365,1.5395, 17298
02/03/2020,16:02,1.5405,1.5415,1.5405,1.5405, 5469
02/03/2020,16:04,1.5405,1.541,1.5405,1.541, 2301
02/03/2020,16:06,1.5405,1.541,1.5395,1.541, 8893
02/03/2020,16:07,1.5405,1.5405,1.54,1.54, 8179
02/03/2020,16:09,1.541,1.541,1.541,1.541, 3248
02/03/2020,16:12,1.5415,1.5435,1.5415,1.5435, 4422
02/03/2020,16:12,1.543,1.543,1.543,1.543, 2213
02/03/2020,16:14,1.5435,1.5435,1.5435,1.5435, 2776
02/03/2020,16:14,1.544,1.544,1.544,1.544, 660
02/03/2020,16:19,1.5445,1.5468,1.5445,1.5468, 6511
02/03/2020,16:22,1.5465,1.5475,1.546,1.5475, 7034
02/03/2020,16:22,1.5465,1.5485,1.5465,1.5485, 8389
02/03/2020,16:23,1.5495,1.551,1.5495,1.551, 7792
02/03/2020,16:26,1.5505,1.5515,1.5505,1.5515, 2397
02/03/2020,16:27,1.552,1.553,1.552,1.553, 3227
02/03/2020,16:28,1.552,1.552,1.552,1.552, 2413
02/03/2020,16:30,1.5515,1.5515,1.551,1.551, 1950
02/03/2020,16:31,1.551,1.551,1.551,1.551, 267
02/03/2020,16:32,1.5495,1.5495,1.549,1.549, 637
02/03/2020,16:34,1.55,1.55,1.5495,1.5495, 1271
02/03/2020,16:35,1.549,1.549,1.549,1.549, 312
02/03/2020,16:36,1.549,1.549,1.549,1.549, 251
02/03/2020,16:37,1.5495,1.55,1.5495,1.55, 3474
02/03/2020,16:38,1.551,1.5515,1.551,1.551, 1652
02/03/2020,16:41,1.5505,1.5505,1.5505,1.5505, 2796
02/03/2020,16:42,1.5505,1.5505,1.5495,1.5495, 4479
02/03/2020,16:43,1.549,1.549,1.549,1.549, 130
02/03/2020,16:45,1.548,1.548,1.548,1.548, 600
02/03/2020,16:46,1.548,1.548,1.548,1.548, 168
02/03/2020,16:48,1.547,1.547,1.546,1.546, 4374
02/03/2020,16:48,1.5455,1.5455,1.5455,1.5455, 801
02/03/2020,16:50,1.5445,1.5445,1.5445,1.5445, 60
02/03/2020,16:51,1.543,1.545,1.543,1.545, 14856
02/03/2020,16:54,1.5455,1.5455,1.5455,1.5455, 493
02/03/2020,16:56,1.5455,1.547,1.5455,1.547, 4648
02/03/2020,17:01,1.549,1.549,1.549,1.549, 2847
02/03/2020,17:02,1.548,1.548,1.5475,1.5475, 6252
02/03/2020,17:03,1.547,1.547,1.5465,1.5465, 6042
02/03/2020,17:03,1.546,1.546,1.5455,1.5455, 2773
02/03/2020,17:05,1.5435,1.5435,1.5435,1.5435, 2373
02/03/2020,17:06,1.5435,1.5435,1.543,1.543, 3827
02/03/2020,17:08,1.544,1.544,1.5435,1.5435, 5687
02/03/2020,17:09,1.544,1.5445,1.544,1.5445, 5575
02/03/2020,17:11,1.5445,1.5445,1.5445,1.5445, 1296
02/03/2020,17:14,1.545,1.545,1.545,1.545, 3106
02/03/2020,17:15,1.5445,1.5445,1.5435,1.5445, 18950
02/03/2020,17:17,1.545,1.545,1.544,1.5445, 11386
02/03/2020,17:19,1.544,1.544,1.5435,1.5435, 5923
02/03/2020,17:20,1.543,1.544,1.5425,1.544, 26623
02/03/2020,17:21,1.5445,1.5445,1.5445,1.5445, 1501
02/03/2020,17:23,1.543,1.543,1.543,1.543, 4425
02/03/2020,17:24,1.543,1.5435,1.543,1.543, 10242
02/03/2020,17:25,1.5435,1.544,1.5435,1.544, 5295
02/03/2020,17:26,1.544,1.544,1.544,1.544, 418
02/03/2020,17:27,1.544,1.544,1.5435,1.5435, 4047
02/03/2020,17:28,1.5433,1.5433,1.5433,1.5433, 2779
02/03/2020,17:28,1.543,1.543,1.543,1.543, 422
02/03/2020,17:30,1.5425,1.5425,1.5425,1.5425, 1709
02/03/2020,17:30,1.542,1.542,1.54,1.54, 1650
02/03/2020,17:36,1.5445,1.5445,1.5445,1.5445, 1044937
02/04/2020,09:01,1.525,1.525,1.525,1.525, 4308
02/04/2020,09:03,1.549,1.549,1.549,1.549, 428
02/04/2020,09:04,1.5485,1.5485,1.5475,1.5475, 1050
02/04/2020,09:05,1.554,1.5615,1.5525,1.5565, 7862
02/04/2020,09:07,1.554,1.554,1.5515,1.5515, 7534
02/04/2020,09:08,1.5495,1.551,1.549,1.551, 5320
02/04/2020,09:09,1.552,1.552,1.552,1.552, 1524
02/04/2020,09:10,1.5545,1.5565,1.554,1.5565, 3387
02/04/2020,09:11,1.5595,1.5595,1.5595,1.5595, 11698
02/04/2020,09:12,1.558,1.558,1.557,1.557, 20933
02/04/2020,09:16,1.5555,1.5555,1.5555,1.5555, 1621
02/04/2020,09:18,1.5555,1.5555,1.5555,1.5555, 1795
02/04/2020,09:21,1.553,1.553,1.553,1.553, 166
02/04/2020,09:24,1.556,1.556,1.5505,1.5505, 13275
02/04/2020,09:27,1.552,1.552,1.552,1.552, 2937
02/04/2020,09:29,1.5535,1.5535,1.5535,1.5535, 1347
02/04/2020,09:30,1.5519,1.5519,1.5519,1.5519, 995
02/04/2020,09:34,1.5555,1.556,1.5555,1.556, 13076
02/04/2020,09:35,1.5535,1.5535,1.5525,1.5525, 2968
02/04/2020,09:38,1.5535,1.5535,1.5535,1.5535, 1329
02/04/2020,09:38,1.554,1.554,1.554,1.554, 1501
02/04/2020,09:46,1.5555,1.556,1.555,1.556, 22293
02/04/2020,09:47,1.5555,1.556,1.5555,1.556, 7573
02/04/2020,09:48,1.5545,1.556,1.5545,1.5555, 52984
02/04/2020,09:49,1.5535,1.5535,1.5535,1.5535, 3272
02/04/2020,09:50,1.5545,1.5545,1.5545,1.5545, 2426
02/04/2020,09:52,1.555,1.5575,1.555,1.5575, 56360
02/04/2020,09:52,1.559,1.5595,1.558,1.5585, 27229
02/04/2020,09:54,1.559,1.559,1.5555,1.5555, 40299
02/04/2020,09:56,1.5553,1.5575,1.5545,1.5575, 15143
02/04/2020,09:57,1.5565,1.5605,1.5565,1.557, 70669
02/04/2020,10:01,1.5565,1.5565,1.556,1.5565, 2437
02/04/2020,10:02,1.555,1.5555,1.555,1.555, 6097
02/04/2020,10:04,1.556,1.5565,1.556,1.5565, 1188
02/04/2020,10:06,1.556,1.556,1.555,1.555, 2684
02/04/2020,10:08,1.5545,1.5545,1.5525,1.553, 11753
02/04/2020,10:09,1.5525,1.554,1.5525,1.554, 11020
02/04/2020,10:11,1.5545,1.5545,1.554,1.554, 1710
02/04/2020,10:13,1.555,1.555,1.555,1.555, 2590
02/04/2020,10:14,1.554,1.554,1.554,1.554, 3381
02/04/2020,10:15,1.555,1.555,1.555,1.555, 10800
02/04/2020,10:18,1.554,1.554,1.5525,1.5525, 14178
02/04/2020,10:21,1.5516,1.5516,1.551,1.551, 4787
02/04/2020,10:22,1.5515,1.5515,1.551,1.551, 1665
02/04/2020,10:24,1.55,1.55,1.55,1.55, 649
02/04/2020,10:25,1.549,1.549,1.549,1.549, 3459
02/04/2020,10:29,1.547,1.547,1.547,1.547, 23
02/04/2020,10:29,1.546,1.546,1.5455,1.5455, 2510
02/04/2020,10:32,1.5455,1.5455,1.544,1.545, 11744
02/04/2020,10:33,1.545,1.545,1.545,1.545, 279
02/04/2020,10:34,1.5455,1.5455,1.5445,1.5445, 4931
02/04/2020,10:35,1.5455,1.546,1.5455,1.546, 3618
02/04/2020,10:37,1.5465,1.5475,1.5465,1.5475, 6154
02/04/2020,10:39,1.547,1.547,1.547,1.547, 461
02/04/2020,10:41,1.548,1.548,1.548,1.548, 3729
02/04/2020,10:42,1.5485,1.5485,1.5485,1.5485, 2084
02/04/2020,10:42,1.5475,1.5475,1.547,1.547, 1880
02/04/2020,10:44,1.5455,1.5455,1.545,1.545, 1014
02/04/2020,10:50,1.5465,1.5465,1.546,1.546, 3680
02/04/2020,10:52,1.5475,1.5475,1.5475,1.5475, 87
02/04/2020,10:53,1.547,1.547,1.547,1.547, 874
02/04/2020,10:54,1.5475,1.5475,1.5475,1.5475, 999
02/04/2020,11:04,1.5475,1.548,1.547,1.5475, 10562
02/04/2020,11:05,1.5465,1.5465,1.5465,1.5465, 693
02/04/2020,11:07,1.5465,1.5465,1.5465,1.5465, 1073
02/04/2020,11:08,1.5465,1.5465,1.546,1.5465, 16325
02/04/2020,11:11,1.5462,1.5462,1.5462,1.5462, 338
02/04/2020,11:12,1.546,1.547,1.546,1.547, 12965
02/04/2020,11:16,1.5475,1.5475,1.5475,1.5475, 1956
02/04/2020,11:25,1.546,1.5473,1.546,1.5473, 12039
02/04/2020,11:29,1.5465,1.5465,1.5465,1.5465, 3387
02/04/2020,11:30,1.5465,1.5465,1.5465,1.5465, 2176
02/04/2020,11:38,1.546,1.546,1.5445,1.5445, 11397
02/04/2020,11:41,1.5445,1.5445,1.5445,1.5445, 2382
02/04/2020,11:42,1.5455,1.5455,1.5455,1.5455, 2051
02/04/2020,11:43,1.5455,1.5455,1.5455,1.5455, 740
02/04/2020,11:44,1.5475,1.5475,1.5475,1.5475, 6600
02/04/2020,11:46,1.546,1.546,1.545,1.545, 10660
02/04/2020,11:46,1.542,1.542,1.5415,1.5415, 605
02/04/2020,11:49,1.543,1.543,1.543,1.543, 9408
02/04/2020,11:50,1.543,1.543,1.543,1.543, 955
02/04/2020,11:51,1.543,1.543,1.5425,1.543, 9810
02/04/2020,11:53,1.543,1.543,1.543,1.543, 2039
02/04/2020,11:53,1.5435,1.5435,1.5435,1.5435, 102
02/04/2020,11:58,1.543,1.543,1.543,1.543, 2491
02/04/2020,11:59,1.5425,1.5425,1.5425,1.5425, 1512
02/04/2020,12:02,1.542,1.542,1.5405,1.541, 7724
02/04/2020,12:03,1.5415,1.5425,1.5415,1.5425, 2666
02/04/2020,12:07,1.542,1.542,1.542,1.542, 2430
02/04/2020,12:08,1.5425,1.543,1.5425,1.543, 4803
02/04/2020,12:11,1.5435,1.5435,1.543,1.5435, 8898
02/04/2020,12:13,1.545,1.545,1.545,1.545, 1256
02/04/2020,12:15,1.546,1.547,1.546,1.547, 2313
02/04/2020,12:17,1.548,1.548,1.548,1.548, 1535
02/04/2020,12:18,1.5485,1.5485,1.548,1.548, 3044
02/04/2020,12:24,1.5475,1.5475,1.5475,1.5475, 3471
02/04/2020,12:27,1.5465,1.5465,1.546,1.5465, 5611
02/04/2020,12:28,1.546,1.546,1.5445,1.5445, 918
02/04/2020,12:31,1.545,1.545,1.5445,1.5445, 2500
02/04/2020,12:31,1.5455,1.5455,1.545,1.5455, 1936
02/04/2020,12:35,1.5455,1.546,1.5455,1.546, 1845
02/04/2020,12:37,1.547,1.5485,1.5455,1.5485, 20312
02/04/2020,12:38,1.548,1.548,1.5475,1.5475, 2296
02/04/2020,12:40,1.5475,1.5475,1.547,1.547, 2342
02/04/2020,12:41,1.5465,1.5465,1.5465,1.5465, 839
02/04/2020,12:42,1.5465,1.5465,1.5465,1.5465, 402
02/04/2020,12:44,1.548,1.55,1.548,1.5495, 18413
02/04/2020,12:44,1.55,1.55,1.55,1.55, 2239
02/04/2020,12:46,1.5495,1.5495,1.5495,1.5495, 549
02/04/2020,12:48,1.5495,1.5515,1.5495,1.551, 15560
02/04/2020,12:50,1.5525,1.5525,1.5525,1.5525, 791
02/04/2020,12:52,1.5525,1.553,1.5525,1.553, 5536
02/04/2020,12:55,1.55,1.55,1.549,1.5495, 3005
02/04/2020,12:57,1.5495,1.5495,1.5495,1.5495, 2765
02/04/2020,13:03,1.547,1.548,1.547,1.548, 6697
02/04/2020,13:07,1.5475,1.5495,1.5475,1.5495, 13042
02/04/2020,13:08,1.5505,1.5505,1.5505,1.5505, 804
02/04/2020,13:09,1.55,1.55,1.55,1.55, 2462
02/04/2020,13:11,1.5505,1.5505,1.5505,1.5505, 1758
02/04/2020,13:11,1.5515,1.5515,1.5515,1.5515, 1289
02/04/2020,13:14,1.552,1.552,1.552,1.552, 1456
02/04/2020,13:17,1.553,1.553,1.5529,1.5529, 4463
02/04/2020,13:18,1.5535,1.5535,1.5535,1.5535, 3487
02/04/2020,13:18,1.5535,1.5535,1.5535,1.5535, 97
02/04/2020,13:23,1.554,1.556,1.554,1.556, 4902
02/04/2020,13:29,1.557,1.559,1.557,1.559, 2762
02/04/2020,13:31,1.5605,1.5605,1.5605,1.5605, 908
02/04/2020,13:32,1.5605,1.563,1.5605,1.5614, 6534
02/04/2020,13:33,1.5595,1.56,1.5595,1.5595, 3946
02/04/2020,13:34,1.558,1.5585,1.558,1.5585, 2730
02/04/2020,13:36,1.559,1.559,1.559,1.559, 1151
02/04/2020,13:37,1.5586,1.5586,1.5586,1.5586, 3500
02/04/2020,13:37,1.5595,1.5595,1.5595,1.5595, 2424
02/04/2020,13:39,1.558,1.5615,1.558,1.561, 12341
02/04/2020,13:42,1.5585,1.5605,1.556,1.559, 19670
02/04/2020,13:43,1.5605,1.562,1.5605,1.562, 1902
02/04/2020,13:51,1.5625,1.5625,1.5625,1.5625, 1334
02/04/2020,13:55,1.561,1.561,1.561,1.561, 3317
02/04/2020,13:57,1.56,1.5615,1.56,1.5615, 3941
02/04/2020,14:04,1.56,1.561,1.56,1.561, 3080
02/04/2020,14:12,1.56,1.5625,1.56,1.5625, 5130
02/04/2020,14:12,1.564,1.564,1.564,1.564, 248
02/04/2020,14:14,1.5632,1.5632,1.5632,1.5632, 4164
02/04/2020,14:18,1.565,1.565,1.565,1.565, 2449
02/04/2020,14:22,1.5645,1.565,1.5645,1.565, 10650
02/04/2020,14:23,1.5645,1.565,1.5645,1.565, 1045
02/04/2020,14:24,1.5645,1.5645,1.5645,1.5645, 116
02/04/2020,14:26,1.565,1.565,1.565,1.565, 1189
02/04/2020,14:29,1.5655,1.5655,1.5655,1.5655, 407
02/04/2020,14:34,1.565,1.565,1.565,1.565, 3750
02/04/2020,14:36,1.566,1.566,1.566,1.566, 503
02/04/2020,14:42,1.5655,1.5655,1.5655,1.5655, 1729
02/04/2020,14:43,1.5655,1.5655,1.565,1.565, 516
02/04/2020,14:44,1.5655,1.566,1.5655,1.566, 4574
02/04/2020,14:45,1.5665,1.5665,1.566,1.5665, 2015
02/04/2020,14:51,1.5675,1.5675,1.567,1.567, 5369
02/04/2020,14:52,1.567,1.567,1.566,1.566, 836
02/04/2020,14:53,1.5665,1.5665,1.5665,1.5665, 3857
02/04/2020,14:56,1.5662,1.5662,1.5662,1.5662, 800
02/04/2020,14:59,1.566,1.566,1.5655,1.5655, 138
02/04/2020,15:02,1.5655,1.5655,1.565,1.565, 1287
02/04/2020,15:05,1.565,1.566,1.565,1.566, 4980
02/04/2020,15:08,1.566,1.566,1.566,1.566, 318
02/04/2020,15:09,1.566,1.566,1.566,1.566, 2850
02/04/2020,15:11,1.5653,1.5653,1.5653,1.5653, 1864
02/04/2020,15:12,1.565,1.565,1.565,1.565, 924
02/04/2020,15:13,1.566,1.566,1.566,1.566, 4743
02/04/2020,15:15,1.565,1.565,1.565,1.565, 1017
02/04/2020,15:15,1.565,1.565,1.565,1.565, 3723
02/04/2020,15:18,1.5645,1.5645,1.5615,1.562, 12467
02/04/2020,15:19,1.562,1.563,1.562,1.563, 8674
02/04/2020,15:20,1.564,1.564,1.564,1.564, 5934
02/04/2020,15:21,1.564,1.5655,1.5635,1.5655, 12602
02/04/2020,15:22,1.5665,1.5665,1.5665,1.5665, 1101
02/04/2020,15:24,1.567,1.5675,1.567,1.5675, 4447
02/04/2020,15:26,1.5685,1.5685,1.5685,1.5685, 3430
02/04/2020,15:29,1.569,1.569,1.569,1.569, 1946
02/04/2020,15:30,1.569,1.569,1.569,1.569, 795
02/04/2020,15:31,1.569,1.569,1.569,1.569, 538
02/04/2020,15:32,1.5685,1.5685,1.568,1.568, 4702
02/04/2020,15:33,1.5675,1.5675,1.5675,1.5675, 1915
02/04/2020,15:34,1.5665,1.567,1.566,1.566, 23709
02/04/2020,15:35,1.566,1.566,1.5655,1.5655, 2039
02/04/2020,15:36,1.565,1.5655,1.565,1.5655, 6098
02/04/2020,15:37,1.5655,1.5655,1.5655,1.5655, 4766
02/04/2020,15:38,1.5655,1.5655,1.5655,1.5655, 845
02/04/2020,15:39,1.566,1.566,1.5655,1.5655, 8186
02/04/2020,15:39,1.565,1.565,1.565,1.565, 2161
02/04/2020,15:43,1.565,1.5655,1.565,1.5655, 9072
02/04/2020,15:43,1.566,1.566,1.566,1.566, 369
02/04/2020,15:44,1.565,1.565,1.565,1.565, 923
02/04/2020,15:46,1.5655,1.566,1.5655,1.566, 1354
02/04/2020,15:47,1.566,1.566,1.5655,1.566, 2884
02/04/2020,15:48,1.5655,1.5655,1.5655,1.5655, 810
02/04/2020,15:51,1.5655,1.5655,1.5655,1.5655, 5198
02/04/2020,15:52,1.565,1.565,1.565,1.565, 9676
02/04/2020,15:53,1.565,1.565,1.565,1.565, 2409
02/04/2020,15:54,1.5645,1.5645,1.5645,1.5645, 1150
02/04/2020,15:56,1.564,1.564,1.563,1.563, 178
02/04/2020,15:57,1.562,1.5625,1.562,1.562, 6356
02/04/2020,15:57,1.5625,1.563,1.5625,1.563, 8582
02/04/2020,16:01,1.563,1.563,1.563,1.563, 3523
02/04/2020,16:01,1.5633,1.5633,1.5633,1.5633, 2
02/04/2020,16:03,1.563,1.563,1.563,1.563, 1174
02/04/2020,16:04,1.563,1.563,1.5623,1.5625, 2813
02/04/2020,16:05,1.562,1.562,1.562,1.562, 1987
02/04/2020,16:06,1.561,1.561,1.561,1.561, 302
02/04/2020,16:06,1.5605,1.5605,1.5605,1.5605, 634
02/04/2020,16:08,1.56,1.5605,1.559,1.5605, 7658
02/04/2020,16:11,1.5595,1.561,1.5595,1.561, 23710
02/04/2020,16:13,1.56,1.56,1.56,1.56, 3418
02/04/2020,16:14,1.5595,1.5595,1.5595,1.5595, 2005
02/04/2020,16:17,1.56,1.56,1.5595,1.56, 5260
02/04/2020,16:17,1.5605,1.5605,1.5595,1.56, 6435
02/04/2020,16:19,1.5585,1.5585,1.556,1.556, 16455
02/04/2020,16:20,1.557,1.558,1.556,1.557, 21286
02/04/2020,16:20,1.5585,1.559,1.5585,1.559, 7124
02/04/2020,16:22,1.562,1.562,1.5605,1.5605, 4905
02/04/2020,16:23,1.561,1.561,1.561,1.561, 375
02/04/2020,16:23,1.5605,1.5605,1.5605,1.5605, 3014
02/04/2020,16:26,1.5615,1.5615,1.5615,1.5615, 2090
02/04/2020,16:29,1.561,1.561,1.56,1.56, 8075
02/04/2020,16:30,1.559,1.559,1.5585,1.5585, 1692
02/04/2020,16:31,1.558,1.558,1.558,1.558, 1561
02/04/2020,16:32,1.558,1.558,1.558,1.558, 71
02/04/2020,16:33,1.5575,1.5576,1.557,1.557, 4839
02/04/2020,16:34,1.5565,1.5565,1.556,1.556, 18446
02/04/2020,16:35,1.5555,1.5565,1.5555,1.556, 11945
02/04/2020,16:38,1.5565,1.559,1.5565,1.559, 13498
02/04/2020,16:38,1.56,1.56,1.559,1.559, 8161
02/04/2020,16:40,1.5605,1.5605,1.5585,1.5585, 9097
02/04/2020,16:43,1.559,1.5605,1.559,1.5605, 10579
02/04/2020,16:44,1.5605,1.5605,1.5605,1.5605, 1195
02/04/2020,16:45,1.561,1.561,1.561,1.561, 2856
02/04/2020,16:46,1.561,1.561,1.56,1.56, 5322
02/04/2020,16:47,1.5595,1.5595,1.5595,1.5595, 3262
02/04/2020,16:48,1.56,1.56,1.5595,1.5595, 1034
02/04/2020,16:48,1.56,1.56,1.56,1.56, 249
02/04/2020,16:51,1.561,1.561,1.561,1.561, 1057
02/04/2020,16:52,1.561,1.561,1.5596,1.5596, 6698
02/04/2020,16:53,1.5605,1.5605,1.5595,1.5595, 6902
02/04/2020,16:55,1.5595,1.5595,1.559,1.559, 3631
02/04/2020,16:56,1.5585,1.5585,1.5585,1.5585, 621
02/04/2020,16:57,1.5595,1.5595,1.5595,1.5595, 4159
02/04/2020,16:58,1.559,1.559,1.5585,1.5585, 393
02/04/2020,16:59,1.5595,1.5595,1.5595,1.5595, 2122
02/04/2020,17:00,1.5585,1.56,1.5585,1.56, 12978
02/04/2020,17:03,1.5605,1.5605,1.5605,1.5605, 1963
02/04/2020,17:04,1.56,1.5605,1.56,1.5605, 2149
02/04/2020,17:06,1.5605,1.5605,1.5605,1.5605, 1527
02/04/2020,17:08,1.5605,1.5605,1.5585,1.5585, 4824
02/04/2020,17:10,1.559,1.559,1.559,1.559, 2455
02/04/2020,17:11,1.5595,1.5605,1.5595,1.5605, 7429
02/04/2020,17:14,1.5595,1.5595,1.5595,1.5595, 100
02/04/2020,17:15,1.56,1.56,1.56,1.56, 5
02/04/2020,17:17,1.56,1.56,1.56,1.56, 2556
02/04/2020,17:17,1.56,1.5615,1.56,1.561, 14108
02/04/2020,17:19,1.5625,1.5625,1.5615,1.5615, 4268
02/04/2020,17:21,1.562,1.5625,1.5615,1.5615, 16980
02/04/2020,17:22,1.5615,1.562,1.5615,1.562, 7349
02/04/2020,17:23,1.5614,1.5614,1.5614,1.5614, 1286
02/04/2020,17:24,1.562,1.562,1.5615,1.562, 4090
02/04/2020,17:25,1.5615,1.5615,1.561,1.561, 7897
02/04/2020,17:26,1.5605,1.561,1.5605,1.561, 6024
02/04/2020,17:26,1.561,1.561,1.561,1.561, 4182
02/04/2020,17:28,1.561,1.5615,1.561,1.561, 3433
02/04/2020,17:29,1.5615,1.5615,1.5615,1.5615, 4033
02/04/2020,17:30,1.5615,1.5615,1.561,1.561, 13867
02/04/2020,17:30,1.561,1.562,1.5605,1.562, 275
02/04/2020,17:36,1.564,1.564,1.564,1.564, 849160
02/05/2020,09:01,1.542,1.5561,1.542,1.5561, 2214
02/05/2020,09:01,1.5466,1.5466,1.5466,1.5466, 69
02/05/2020,09:03,1.5475,1.558,1.543,1.558, 4846
02/05/2020,09:18,1.5615,1.5615,1.5615,1.5615, 4311
02/05/2020,09:22,1.56,1.56,1.56,1.56, 59
02/05/2020,09:22,1.562,1.562,1.562,1.562, 2711
02/05/2020,09:26,1.564,1.564,1.564,1.564, 1657
02/05/2020,09:29,1.566,1.566,1.566,1.566, 93
02/05/2020,09:30,1.5685,1.5695,1.5685,1.5695, 2286
02/05/2020,09:31,1.5675,1.5695,1.5675,1.5685, 3914
02/05/2020,09:32,1.569,1.5695,1.568,1.568, 4663
02/05/2020,09:35,1.5665,1.5675,1.5665,1.5675, 3220
02/05/2020,09:37,1.5695,1.5695,1.569,1.569, 2088
02/05/2020,09:38,1.57,1.57,1.57,1.57, 1013
02/05/2020,09:40,1.575,1.575,1.575,1.575, 1000
02/05/2020,09:41,1.5715,1.5715,1.571,1.5715, 1457
02/05/2020,09:42,1.5712,1.5712,1.5695,1.5695, 2458
02/05/2020,09:43,1.5701,1.5701,1.5701,1.5701, 3079
02/05/2020,09:45,1.5715,1.5715,1.5715,1.5715, 109
02/05/2020,09:47,1.5705,1.573,1.5695,1.573, 17493
02/05/2020,09:48,1.574,1.5745,1.574,1.5745, 1798
02/05/2020,09:50,1.573,1.573,1.573,1.573, 1121
02/05/2020,09:54,1.573,1.573,1.573,1.573, 1508
02/05/2020,09:55,1.573,1.5735,1.573,1.5735, 1702
02/05/2020,09:56,1.573,1.5745,1.573,1.5745, 3609
02/05/2020,09:59,1.5725,1.5725,1.5725,1.5725, 828
02/05/2020,10:01,1.5745,1.5745,1.5745,1.5745, 1986
02/05/2020,10:02,1.5745,1.5745,1.5745,1.5745, 660
02/05/2020,10:07,1.576,1.576,1.576,1.576, 4556
02/05/2020,10:09,1.5779,1.5779,1.5779,1.5779, 30
02/05/2020,10:11,1.579,1.58,1.579,1.58, 3516
02/05/2020,10:12,1.5745,1.577,1.5745,1.575, 12131
02/05/2020,10:14,1.573,1.573,1.573,1.573, 915
02/05/2020,10:15,1.5716,1.5716,1.5716,1.5716, 642
02/05/2020,10:16,1.571,1.571,1.571,1.571, 610
02/05/2020,10:19,1.573,1.573,1.573,1.573, 3651
02/05/2020,10:26,1.5735,1.576,1.5735,1.576, 2609
02/05/2020,10:27,1.576,1.576,1.576,1.576, 2907
02/05/2020,10:28,1.574,1.574,1.571,1.571, 5031
02/05/2020,10:38,1.5715,1.5715,1.5715,1.5715, 511
02/05/2020,10:42,1.573,1.574,1.5725,1.574, 2451
02/05/2020,10:43,1.5731,1.5731,1.5731,1.5731, 3254
02/05/2020,10:46,1.5725,1.5725,1.5725,1.5725, 3360
02/05/2020,10:52,1.5745,1.5745,1.574,1.574, 1735
02/05/2020,11:01,1.574,1.574,1.574,1.574, 3011
02/05/2020,11:02,1.573,1.574,1.573,1.574, 3670
02/05/2020,11:04,1.5715,1.5715,1.5715,1.5715, 1364
02/05/2020,11:05,1.571,1.572,1.571,1.572, 4636
02/05/2020,11:11,1.571,1.571,1.571,1.571, 2919
02/05/2020,11:13,1.5705,1.571,1.5705,1.571, 2643
02/05/2020,11:14,1.5705,1.5705,1.5705,1.5705, 709
02/05/2020,11:15,1.5705,1.5705,1.5705,1.5705, 149
02/05/2020,11:16,1.57,1.57,1.569,1.5695, 9094
02/05/2020,11:22,1.5675,1.5705,1.5675,1.57, 20892
02/05/2020,11:25,1.57,1.5705,1.57,1.5705, 1821
02/05/2020,11:32,1.569,1.569,1.569,1.569, 180
02/05/2020,11:33,1.5675,1.5675,1.5675,1.5675, 1400
02/05/2020,11:35,1.5685,1.5685,1.5685,1.5685, 648
02/05/2020,11:37,1.569,1.569,1.569,1.569, 1169
02/05/2020,11:41,1.5695,1.57,1.5695,1.57, 1468
02/05/2020,11:43,1.5697,1.5697,1.5697,1.5697, 2000
02/05/2020,11:46,1.5703,1.5703,1.5703,1.5703, 3148
02/05/2020,11:50,1.5715,1.572,1.5715,1.5715, 4387
02/05/2020,11:57,1.573,1.573,1.573,1.573, 897
02/05/2020,12:00,1.5735,1.5735,1.573,1.573, 4261
02/05/2020,12:01,1.5725,1.5725,1.5725,1.5725, 2864
02/05/2020,12:07,1.5725,1.575,1.5725,1.573, 10649
02/05/2020,12:10,1.573,1.573,1.573,1.573, 680
02/05/2020,12:14,1.5715,1.5715,1.5715,1.5715, 9390
02/05/2020,12:17,1.572,1.572,1.572,1.572, 1370
02/05/2020,12:23,1.5705,1.5705,1.5705,1.5705, 1118
02/05/2020,12:25,1.5705,1.5705,1.5705,1.5705, 2547
02/05/2020,12:31,1.57,1.57,1.57,1.57, 4939
02/05/2020,12:32,1.57,1.5715,1.57,1.5715, 8847
02/05/2020,12:36,1.57,1.57,1.57,1.57, 2124
02/05/2020,12:37,1.5685,1.5685,1.5665,1.5685, 7579
02/05/2020,12:38,1.5655,1.5655,1.565,1.565, 4671
02/05/2020,12:39,1.5655,1.567,1.564,1.567, 11767
02/05/2020,12:45,1.569,1.569,1.569,1.569, 2559
02/05/2020,12:47,1.57,1.5705,1.57,1.5705, 2500
02/05/2020,12:50,1.5715,1.5715,1.571,1.5715, 2531
02/05/2020,12:53,1.572,1.5725,1.572,1.572, 6363
02/05/2020,12:56,1.572,1.5725,1.572,1.5725, 1480
02/05/2020,12:57,1.572,1.572,1.572,1.572, 2186
02/05/2020,12:58,1.5725,1.5725,1.5725,1.5725, 2588
02/05/2020,13:00,1.572,1.572,1.572,1.572, 5014
02/05/2020,13:03,1.5715,1.5715,1.5715,1.5715, 83
02/05/2020,13:11,1.5735,1.574,1.5735,1.574, 1448
02/05/2020,13:13,1.572,1.572,1.572,1.572, 1521
02/05/2020,13:18,1.573,1.5745,1.573,1.5745, 7592
02/05/2020,13:22,1.5735,1.5735,1.5725,1.5725, 6282
02/05/2020,13:23,1.5755,1.5755,1.5755,1.5755, 183
02/05/2020,13:33,1.5735,1.5735,1.5735,1.5735, 1489
02/05/2020,13:34,1.573,1.573,1.573,1.573, 1150
02/05/2020,13:34,1.5735,1.5735,1.5735,1.5735, 1150
02/05/2020,13:37,1.574,1.574,1.574,1.574, 14
02/05/2020,13:39,1.573,1.573,1.573,1.573, 4934
02/05/2020,13:44,1.573,1.573,1.573,1.573, 4461
02/05/2020,13:45,1.573,1.573,1.573,1.573, 282
02/05/2020,13:47,1.572,1.572,1.572,1.572, 767
02/05/2020,13:50,1.572,1.572,1.5715,1.5715, 2194
02/05/2020,13:51,1.5715,1.572,1.5715,1.572, 2867
02/05/2020,13:52,1.5715,1.5715,1.5715,1.5715, 612
02/05/2020,13:59,1.572,1.5725,1.572,1.5725, 2671
02/05/2020,14:01,1.572,1.572,1.5715,1.572, 2058
02/05/2020,14:08,1.571,1.571,1.571,1.571, 2974
02/05/2020,14:09,1.5715,1.5715,1.5715,1.5715, 2490
02/05/2020,14:10,1.572,1.572,1.572,1.572, 1844
02/05/2020,14:13,1.571,1.5725,1.571,1.5725, 8164
02/05/2020,14:14,1.574,1.574,1.574,1.574, 658
02/05/2020,14:16,1.5745,1.5765,1.5745,1.5765, 1703
02/05/2020,14:18,1.5755,1.5755,1.575,1.575, 3373
02/05/2020,14:21,1.575,1.575,1.5745,1.5745, 8227
02/05/2020,14:22,1.576,1.578,1.576,1.578, 34614
02/05/2020,14:27,1.578,1.578,1.578,1.578, 415
02/05/2020,14:27,1.578,1.578,1.577,1.577, 2479
02/05/2020,14:30,1.5765,1.5765,1.5755,1.5755, 9145
02/05/2020,14:32,1.5765,1.577,1.575,1.575, 9585
02/05/2020,14:34,1.575,1.576,1.575,1.576, 5461
02/05/2020,14:38,1.5765,1.5765,1.5765,1.5765, 358
02/05/2020,14:41,1.5765,1.5765,1.5765,1.5765, 923
02/05/2020,14:45,1.576,1.576,1.576,1.576, 1548
02/05/2020,14:48,1.576,1.576,1.5755,1.576, 10049
02/05/2020,14:50,1.5755,1.5755,1.5755,1.5755, 100
02/05/2020,14:52,1.575,1.5785,1.575,1.5785, 93238
02/05/2020,14:53,1.5785,1.5785,1.5785,1.5785, 702
02/05/2020,14:56,1.579,1.5795,1.578,1.5795, 24080
02/05/2020,14:59,1.578,1.578,1.578,1.578, 1481
02/05/2020,15:00,1.5775,1.5775,1.577,1.577, 3889
02/05/2020,15:02,1.577,1.579,1.577,1.579, 6761
02/05/2020,15:06,1.579,1.579,1.579,1.579, 2682
02/05/2020,15:14,1.579,1.5805,1.579,1.5805, 6040
02/05/2020,15:15,1.5815,1.5825,1.5815,1.5825, 7127
02/05/2020,15:17,1.583,1.5845,1.583,1.5845, 4636
02/05/2020,15:18,1.5845,1.585,1.5845,1.585, 3710
02/05/2020,15:20,1.5845,1.5855,1.5845,1.5855, 5416
02/05/2020,15:21,1.5845,1.586,1.5845,1.5855, 4733
02/05/2020,15:21,1.5845,1.5845,1.583,1.5835, 7451
02/05/2020,15:23,1.5815,1.5815,1.5805,1.5805, 432
02/05/2020,15:24,1.58,1.58,1.58,1.58, 16
02/05/2020,15:26,1.5795,1.5795,1.5795,1.5795, 956
02/05/2020,15:28,1.5805,1.5805,1.5805,1.5805, 214
02/05/2020,15:33,1.58,1.58,1.58,1.58, 2957
02/05/2020,15:36,1.5795,1.5795,1.5795,1.5795, 1213
02/05/2020,15:38,1.579,1.579,1.579,1.579, 1510
02/05/2020,15:41,1.579,1.579,1.579,1.579, 2482
02/05/2020,15:42,1.5785,1.5785,1.5785,1.5785, 834
02/05/2020,15:42,1.578,1.578,1.578,1.578, 4074
02/05/2020,15:44,1.5785,1.5785,1.5785,1.5785, 4931
02/05/2020,15:46,1.5785,1.5785,1.5785,1.5785, 254
02/05/2020,15:46,1.579,1.579,1.579,1.579, 3325
02/05/2020,15:48,1.58,1.581,1.58,1.581, 3511
02/05/2020,15:50,1.582,1.582,1.581,1.5815, 4374
02/05/2020,15:52,1.581,1.5815,1.581,1.5815, 5295
02/05/2020,15:54,1.5815,1.5815,1.5815,1.5815, 422
02/05/2020,15:56,1.5815,1.5815,1.581,1.581, 6940
02/05/2020,15:57,1.5805,1.5805,1.5805,1.5805, 11
02/05/2020,15:59,1.5815,1.5815,1.5815,1.5815, 339
02/05/2020,16:02,1.5805,1.5805,1.5805,1.5805, 3406
02/05/2020,16:04,1.5805,1.581,1.5805,1.581, 3419
02/05/2020,16:05,1.5815,1.5815,1.5815,1.5815, 373
02/05/2020,16:09,1.5795,1.5795,1.5795,1.5795, 1259
02/05/2020,16:12,1.578,1.579,1.578,1.579, 6054
02/05/2020,16:13,1.578,1.578,1.5775,1.578, 4137
02/05/2020,16:15,1.5775,1.5775,1.5765,1.5765, 5019
02/05/2020,16:17,1.576,1.576,1.576,1.576, 985
02/05/2020,16:17,1.576,1.576,1.576,1.576, 6835
02/05/2020,16:19,1.5755,1.5755,1.5755,1.5755, 654
02/05/2020,16:19,1.5755,1.5755,1.5755,1.5755, 3867
02/05/2020,16:21,1.575,1.576,1.575,1.576, 4840
02/05/2020,16:22,1.5755,1.5755,1.5755,1.5755, 1880
02/05/2020,16:25,1.575,1.5765,1.575,1.5757, 1905
02/05/2020,16:28,1.575,1.575,1.5725,1.573, 9919
02/05/2020,16:29,1.5735,1.5745,1.5735,1.574, 6531
02/05/2020,16:31,1.5735,1.5735,1.5735,1.5735, 1004
02/05/2020,16:33,1.5735,1.5735,1.5735,1.5735, 3303
02/05/2020,16:34,1.5733,1.5733,1.5733,1.5733, 639
02/05/2020,16:36,1.575,1.576,1.575,1.576, 5078
02/05/2020,16:37,1.576,1.5765,1.576,1.5765, 3918
02/05/2020,16:38,1.5765,1.577,1.5765,1.577, 9545
02/05/2020,16:39,1.5775,1.5775,1.5775,1.5775, 973
02/05/2020,16:41,1.577,1.578,1.577,1.577, 5897
02/05/2020,16:44,1.578,1.578,1.578,1.578, 2603
02/05/2020,16:46,1.578,1.578,1.577,1.5772, 8108
02/05/2020,16:48,1.5765,1.5765,1.5765,1.5765, 5474
02/05/2020,16:49,1.576,1.576,1.576,1.576, 483
02/05/2020,16:50,1.577,1.577,1.5765,1.577, 11975
02/05/2020,16:51,1.578,1.579,1.578,1.579, 3390
02/05/2020,16:51,1.5795,1.5795,1.5795,1.5795, 1527
02/05/2020,16:53,1.5795,1.5795,1.5795,1.5795, 848
02/05/2020,16:54,1.58,1.58,1.58,1.58, 1698
02/05/2020,16:56,1.5805,1.5805,1.5805,1.5805, 855
02/05/2020,17:00,1.5815,1.582,1.5815,1.582, 6182
02/05/2020,17:00,1.5825,1.5825,1.5825,1.5825, 2170
02/05/2020,17:06,1.5825,1.5855,1.5825,1.5855, 21234
02/05/2020,17:07,1.586,1.586,1.5855,1.5855, 4206
02/05/2020,17:07,1.5845,1.5845,1.5845,1.5845, 439
02/05/2020,17:09,1.5845,1.5855,1.5845,1.5855, 12252
02/05/2020,17:11,1.585,1.585,1.585,1.585, 78
02/05/2020,17:12,1.585,1.5855,1.585,1.5855, 6022
02/05/2020,17:13,1.586,1.5865,1.586,1.5865, 12666
02/05/2020,17:14,1.5865,1.5885,1.5865,1.5885, 19916
02/05/2020,17:15,1.5884,1.5884,1.5884,1.5884, 1284
02/05/2020,17:16,1.588,1.5885,1.587,1.587, 37692
02/05/2020,17:17,1.5865,1.5865,1.586,1.586, 10618
02/05/2020,17:17,1.587,1.587,1.5863,1.5863, 2613
02/05/2020,17:20,1.5875,1.5895,1.5875,1.5895, 26896
02/05/2020,17:21,1.589,1.589,1.5875,1.5875, 10249
02/05/2020,17:22,1.5875,1.5875,1.5875,1.5875, 501
02/05/2020,17:23,1.5865,1.587,1.586,1.586, 18940
02/05/2020,17:24,1.5855,1.5865,1.5855,1.5865, 13096
02/05/2020,17:27,1.586,1.586,1.5835,1.5835, 13627
02/05/2020,17:29,1.582,1.5825,1.581,1.5825, 9674
02/05/2020,17:30,1.582,1.5825,1.582,1.5825, 2170
02/05/2020,17:30,1.5815,1.5815,1.5815,1.5815, 678
02/05/2020,17:36,1.575,1.575,1.575,1.575, 986320
02/05/2020,17:36,1.575,1.575,1.575,1.575, 1115
02/06/2020,09:01,1.5785,1.5895,1.5785,1.5895, 696
02/06/2020,09:02,1.5825,1.5825,1.582,1.582, 1286
02/06/2020,09:04,1.582,1.582,1.581,1.5815, 1061
02/06/2020,09:05,1.5875,1.5875,1.5875,1.5875, 490
02/06/2020,09:06,1.588,1.592,1.588,1.592, 3336
02/06/2020,09:07,1.5899,1.5899,1.5899,1.5899, 1692
02/06/2020,09:08,1.5915,1.5915,1.59,1.59, 1657
02/06/2020,09:09,1.5895,1.5895,1.5895,1.5895, 2314
02/06/2020,09:11,1.5895,1.59,1.5895,1.5895, 3009
02/06/2020,09:14,1.5889,1.5889,1.5889,1.5889, 509
02/06/2020,09:14,1.5889,1.5889,1.5889,1.5889, 653
02/06/2020,09:16,1.5915,1.5915,1.5915,1.5915, 713
02/06/2020,09:32,1.5895,1.5895,1.5886,1.5886, 4278
02/06/2020,09:32,1.5895,1.5895,1.5895,1.5895, 1000
02/06/2020,09:34,1.5885,1.5885,1.5885,1.5885, 1205
02/06/2020,09:36,1.5885,1.5885,1.5882,1.5882, 12500
02/06/2020,09:39,1.587,1.587,1.587,1.587, 1723
02/06/2020,09:39,1.5885,1.5885,1.5885,1.5885, 729
02/06/2020,09:45,1.5892,1.5925,1.5892,1.5915, 14553
02/06/2020,09:50,1.591,1.5915,1.591,1.5915, 2186
02/06/2020,09:51,1.5915,1.5915,1.5915,1.5915, 663
02/06/2020,09:53,1.5895,1.5895,1.5895,1.5895, 664
02/06/2020,09:54,1.588,1.589,1.588,1.588, 4734
02/06/2020,09:57,1.5876,1.5876,1.5876,1.5876, 48
02/06/2020,09:58,1.5865,1.5865,1.5865,1.5865, 2201
02/06/2020,10:01,1.5845,1.585,1.5835,1.584, 5323
02/06/2020,10:01,1.5825,1.5825,1.5825,1.5825, 1511
02/06/2020,10:04,1.5815,1.5815,1.58,1.581, 6854
02/06/2020,10:05,1.579,1.5805,1.5785,1.5795, 11115
02/06/2020,10:07,1.581,1.5815,1.581,1.581, 18890
02/06/2020,10:11,1.5835,1.5844,1.582,1.5844, 8053
02/06/2020,10:11,1.583,1.583,1.583,1.583, 242
02/06/2020,10:13,1.5829,1.5829,1.5829,1.5829, 1357
02/06/2020,10:18,1.582,1.582,1.5785,1.5785, 8890
02/06/2020,10:22,1.578,1.578,1.578,1.578, 83
02/06/2020,10:22,1.577,1.577,1.5765,1.5765, 958
02/06/2020,10:24,1.5762,1.5762,1.575,1.575, 3220
02/06/2020,10:25,1.5745,1.5745,1.572,1.572, 4635
02/06/2020,10:25,1.573,1.573,1.573,1.573, 1250
02/06/2020,10:26,1.573,1.573,1.573,1.573, 58
02/06/2020,10:28,1.5725,1.5725,1.5725,1.5725, 57
02/06/2020,10:29,1.5715,1.5725,1.5715,1.5725, 4080
02/06/2020,10:29,1.574,1.574,1.574,1.574, 338
02/06/2020,10:34,1.5765,1.5765,1.5765,1.5765, 77
02/06/2020,10:35,1.5745,1.5745,1.5745,1.5745, 390
02/06/2020,10:36,1.574,1.575,1.5735,1.575, 2477
02/06/2020,10:36,1.5755,1.576,1.5755,1.576, 2055
02/06/2020,10:37,1.576,1.576,1.576,1.576, 789
02/06/2020,10:41,1.5765,1.577,1.5765,1.577, 1146
02/06/2020,10:49,1.578,1.578,1.578,1.578, 1539
02/06/2020,10:51,1.578,1.5795,1.578,1.5785, 3919
02/06/2020,10:57,1.58,1.58,1.58,1.58, 1043
02/06/2020,10:59,1.58,1.58,1.58,1.58, 844
02/06/2020,11:01,1.58,1.58,1.58,1.58, 151
02/06/2020,11:02,1.5785,1.5785,1.5775,1.5785, 3464
02/06/2020,11:06,1.578,1.578,1.578,1.578, 58
02/06/2020,11:08,1.5773,1.578,1.5773,1.5775, 4862
02/06/2020,11:09,1.578,1.5785,1.5775,1.5785, 7152
02/06/2020,11:10,1.5805,1.5805,1.5805,1.5805, 1026
02/06/2020,11:17,1.5795,1.581,1.5795,1.581, 2294
02/06/2020,11:18,1.5815,1.5815,1.5815,1.5815, 784
02/06/2020,11:21,1.5805,1.5805,1.5795,1.58, 3702
02/06/2020,11:21,1.581,1.581,1.581,1.581, 6
02/06/2020,11:32,1.5805,1.5805,1.5805,1.5805, 2500
02/06/2020,11:36,1.58,1.58,1.58,1.58, 350
02/06/2020,11:37,1.579,1.579,1.579,1.579, 128
02/06/2020,11:38,1.5795,1.5795,1.5795,1.5795, 606
02/06/2020,11:47,1.5815,1.5815,1.5798,1.5798, 3831
02/06/2020,11:50,1.581,1.581,1.581,1.581, 15
02/06/2020,11:51,1.581,1.581,1.581,1.581, 523
02/06/2020,11:58,1.579,1.579,1.579,1.579, 408
02/06/2020,11:59,1.5775,1.5775,1.5775,1.5775, 82
02/06/2020,12:00,1.579,1.579,1.579,1.579, 729
02/06/2020,12:03,1.5805,1.5805,1.58,1.5805, 5795
02/06/2020,12:07,1.582,1.582,1.582,1.582, 725
02/06/2020,12:09,1.582,1.582,1.582,1.582, 71
02/06/2020,12:09,1.584,1.584,1.584,1.584, 56
02/06/2020,12:11,1.5845,1.5845,1.5845,1.5845, 292
02/06/2020,12:16,1.582,1.582,1.582,1.582, 33
02/06/2020,12:17,1.5835,1.5835,1.5835,1.5835, 814
02/06/2020,12:27,1.582,1.582,1.582,1.582, 685
02/06/2020,12:32,1.5845,1.5845,1.5845,1.5845, 864
02/06/2020,12:33,1.5845,1.5845,1.5845,1.5845, 2426
02/06/2020,12:34,1.585,1.5855,1.585,1.5855, 3300
02/06/2020,12:37,1.5846,1.5846,1.5846,1.5846, 3000
02/06/2020,12:42,1.585,1.585,1.585,1.585, 337
02/06/2020,12:44,1.584,1.5845,1.584,1.5845, 98
02/06/2020,12:44,1.5845,1.5845,1.5845,1.5845, 5617
02/06/2020,12:46,1.585,1.5865,1.585,1.5865, 3503
02/06/2020,12:49,1.587,1.587,1.587,1.587, 16333
02/06/2020,12:51,1.5861,1.5861,1.5861,1.5861, 1687
02/06/2020,12:52,1.587,1.587,1.587,1.587, 826
02/06/2020,12:53,1.5855,1.5855,1.5855,1.5855, 1572
02/06/2020,12:55,1.583,1.583,1.583,1.583, 234
02/06/2020,12:56,1.581,1.582,1.581,1.582, 116
02/06/2020,13:03,1.5815,1.586,1.5815,1.582, 16722
02/06/2020,13:06,1.585,1.586,1.585,1.586, 751
02/06/2020,13:08,1.5862,1.5862,1.5862,1.5862, 504
02/06/2020,13:23,1.5853,1.5853,1.5853,1.5853, 733
02/06/2020,13:24,1.5865,1.588,1.5865,1.588, 150
02/06/2020,13:28,1.588,1.588,1.588,1.588, 32
02/06/2020,13:29,1.5865,1.5865,1.5865,1.5865, 779
02/06/2020,13:32,1.5856,1.5856,1.5856,1.5856, 3000
02/06/2020,13:34,1.586,1.586,1.586,1.586, 72
02/06/2020,13:42,1.5855,1.5855,1.585,1.585, 2142
02/06/2020,13:46,1.5845,1.5845,1.5845,1.5845, 526
02/06/2020,13:49,1.586,1.586,1.586,1.586, 449
02/06/2020,13:50,1.5875,1.5875,1.5875,1.5875, 11324
02/06/2020,13:52,1.5855,1.5855,1.5855,1.5855, 76
02/06/2020,13:54,1.5865,1.5865,1.5865,1.5865, 46
02/06/2020,13:57,1.5825,1.5825,1.5825,1.5825, 81
02/06/2020,13:58,1.5831,1.5831,1.5831,1.5831, 600
02/06/2020,14:02,1.582,1.582,1.582,1.582, 552
02/06/2020,14:02,1.582,1.582,1.581,1.581, 1511
02/06/2020,14:13,1.58,1.58,1.5795,1.5795, 1917
02/06/2020,14:13,1.5785,1.5785,1.5785,1.5785, 73
02/06/2020,14:14,1.58,1.581,1.58,1.581, 4191
02/06/2020,14:16,1.582,1.582,1.582,1.582, 1177
02/06/2020,14:20,1.5815,1.5815,1.5815,1.5815, 348
02/06/2020,14:25,1.582,1.582,1.582,1.582, 2803
02/06/2020,14:30,1.581,1.581,1.581,1.581, 49
02/06/2020,14:36,1.581,1.582,1.5805,1.582, 3983
02/06/2020,14:37,1.5825,1.5825,1.5815,1.5815, 2861
02/06/2020,14:38,1.5805,1.5805,1.5805,1.5805, 3731
02/06/2020,14:38,1.58,1.58,1.58,1.58, 357
02/06/2020,14:40,1.579,1.5795,1.5785,1.5785, 2501
02/06/2020,14:42,1.5795,1.58,1.5795,1.58, 3860
02/06/2020,14:44,1.579,1.579,1.578,1.578, 729
02/06/2020,14:45,1.5775,1.5775,1.5775,1.5775, 296
02/06/2020,14:49,1.576,1.576,1.576,1.576, 81
02/06/2020,14:50,1.5755,1.5755,1.5755,1.5755, 700
02/06/2020,14:53,1.5745,1.5755,1.5745,1.5745, 3422
02/06/2020,14:54,1.576,1.576,1.5745,1.5745, 4907
02/06/2020,14:56,1.574,1.574,1.574,1.574, 988
02/06/2020,14:56,1.574,1.574,1.5725,1.5725, 1341
02/06/2020,15:00,1.573,1.5745,1.573,1.5745, 1989
02/06/2020,15:07,1.575,1.575,1.575,1.575, 1110
02/06/2020,15:11,1.5755,1.5765,1.5755,1.5765, 5573
02/06/2020,15:12,1.5755,1.5755,1.5755,1.5755, 79
02/06/2020,15:15,1.5765,1.5765,1.576,1.576, 2423
02/06/2020,15:17,1.576,1.576,1.576,1.576, 556
02/06/2020,15:21,1.577,1.577,1.577,1.577, 82
02/06/2020,15:23,1.576,1.576,1.5755,1.5755, 1134
02/06/2020,15:24,1.575,1.575,1.575,1.575, 840
02/06/2020,15:28,1.575,1.575,1.575,1.575, 70
02/06/2020,15:30,1.575,1.575,1.575,1.575, 1401
02/06/2020,15:31,1.5753,1.5753,1.575,1.575, 3878
02/06/2020,15:32,1.5745,1.5745,1.5745,1.5745, 406
02/06/2020,15:34,1.5746,1.5746,1.5746,1.5746, 2685
02/06/2020,15:36,1.575,1.575,1.5735,1.5735, 4427
02/06/2020,15:36,1.571,1.571,1.571,1.571, 36
02/06/2020,15:37,1.571,1.571,1.571,1.571, 100
02/06/2020,15:38,1.57,1.57,1.57,1.57, 349
02/06/2020,15:40,1.57,1.57,1.57,1.57, 88
02/06/2020,15:42,1.5685,1.5685,1.5685,1.5685, 308
02/06/2020,15:42,1.568,1.568,1.568,1.568, 1005
02/06/2020,15:44,1.568,1.569,1.568,1.569, 1299
02/06/2020,15:46,1.5685,1.5685,1.5685,1.5685, 75
02/06/2020,15:46,1.568,1.568,1.5675,1.568, 2660
02/06/2020,15:48,1.5685,1.5685,1.5685,1.5685, 832
02/06/2020,15:48,1.569,1.569,1.569,1.569, 515
02/06/2020,15:50,1.5685,1.5685,1.5685,1.5685, 821
02/06/2020,15:54,1.568,1.568,1.568,1.568, 376
02/06/2020,15:55,1.5685,1.569,1.5685,1.569, 1133
02/06/2020,15:55,1.57,1.57,1.57,1.57, 315
02/06/2020,15:57,1.5705,1.5705,1.5705,1.5705, 1211
02/06/2020,15:59,1.5703,1.5703,1.5703,1.5703, 649
02/06/2020,15:59,1.57,1.57,1.57,1.57, 149
02/06/2020,16:01,1.571,1.571,1.569,1.569, 429
02/06/2020,16:01,1.569,1.569,1.569,1.569, 12
02/06/2020,16:03,1.5695,1.5695,1.5695,1.5695, 13
02/06/2020,16:09,1.57,1.57,1.57,1.57, 728
02/06/2020,16:11,1.569,1.569,1.569,1.569, 51
02/06/2020,16:12,1.5695,1.5695,1.569,1.5695, 3659
02/06/2020,16:13,1.57,1.5705,1.57,1.5705, 4749
02/06/2020,16:15,1.5715,1.5715,1.569,1.569, 7920
02/06/2020,16:16,1.5685,1.5685,1.5685,1.5685, 383
02/06/2020,16:24,1.5675,1.5675,1.567,1.567, 1289
02/06/2020,16:26,1.5665,1.5665,1.5645,1.5665, 3687
02/06/2020,16:27,1.567,1.5675,1.567,1.5675, 4437
02/06/2020,16:27,1.5675,1.5675,1.5675,1.5675, 554
02/06/2020,16:31,1.5679,1.5679,1.5679,1.5679, 2500
02/06/2020,16:32,1.568,1.5685,1.568,1.5685, 1820
02/06/2020,16:33,1.568,1.568,1.568,1.568, 1219
02/06/2020,16:35,1.5675,1.5675,1.5665,1.5665, 1525
02/06/2020,16:38,1.5675,1.5675,1.5675,1.5675, 1016
02/06/2020,16:40,1.568,1.568,1.568,1.568, 55
02/06/2020,16:42,1.5675,1.5675,1.5675,1.5675, 938
02/06/2020,16:44,1.5675,1.5675,1.5675,1.5675, 1010
02/06/2020,16:46,1.568,1.568,1.568,1.568, 2733
02/06/2020,16:47,1.568,1.568,1.568,1.568, 5683
02/06/2020,16:50,1.568,1.568,1.568,1.568, 857
02/06/2020,16:52,1.568,1.568,1.568,1.568, 414
02/06/2020,16:54,1.5675,1.5675,1.5675,1.5675, 2209
02/06/2020,16:56,1.5665,1.5665,1.566,1.566, 4493
02/06/2020,16:57,1.566,1.566,1.566,1.566, 1006
02/06/2020,17:01,1.566,1.566,1.565,1.565, 1318
02/06/2020,17:01,1.5645,1.5645,1.5645,1.5645, 447
02/06/2020,17:04,1.5645,1.5645,1.5635,1.5635, 4656
02/06/2020,17:04,1.5645,1.5645,1.564,1.564, 3603
02/06/2020,17:07,1.565,1.565,1.565,1.565, 572
02/06/2020,17:09,1.565,1.565,1.564,1.564, 3236
02/06/2020,17:11,1.564,1.564,1.564,1.564, 2052
02/06/2020,17:11,1.5645,1.5645,1.5645,1.5645, 2188
02/06/2020,17:16,1.5645,1.5645,1.5645,1.5645, 32
02/06/2020,17:18,1.5645,1.565,1.564,1.564, 3056
02/06/2020,17:19,1.564,1.564,1.564,1.564, 14
02/06/2020,17:21,1.564,1.565,1.564,1.565, 5723
02/06/2020,17:22,1.565,1.565,1.564,1.564, 5717
02/06/2020,17:22,1.564,1.564,1.564,1.564, 67
02/06/2020,17:23,1.5645,1.5645,1.5645,1.5645, 539
02/06/2020,17:25,1.565,1.565,1.565,1.565, 2660
02/06/2020,17:27,1.566,1.566,1.5655,1.5655, 1521
02/06/2020,17:28,1.5655,1.5655,1.5634,1.5634, 7003
02/06/2020,17:30,1.5645,1.5645,1.5635,1.5635, 245
02/06/2020,17:30,1.5635,1.5635,1.5625,1.5635, 1540
02/06/2020,17:36,1.5565,1.5565,1.5565,1.5565, 953313
02/07/2020,09:01,1.532,1.532,1.532,1.532, 3496
02/07/2020,09:03,1.5535,1.5556,1.5535,1.5556, 4703
02/07/2020,09:04,1.5545,1.5545,1.554,1.554, 835
02/07/2020,09:05,1.5465,1.5465,1.5465,1.5465, 530
02/07/2020,09:05,1.5498,1.557,1.5498,1.557, 3215
02/07/2020,09:09,1.5485,1.5485,1.5485,1.5485, 485
02/07/2020,09:10,1.548,1.548,1.5475,1.5475, 1547
02/07/2020,09:15,1.5505,1.5505,1.5505,1.5505, 350
02/07/2020,09:18,1.5515,1.5515,1.5515,1.5515, 2343
02/07/2020,09:20,1.55,1.5505,1.55,1.5505, 1596
02/07/2020,09:23,1.553,1.553,1.553,1.553, 1526
02/07/2020,09:23,1.5555,1.556,1.5555,1.556, 681
02/07/2020,09:25,1.56,1.5605,1.56,1.5605, 2660
02/07/2020,09:27,1.561,1.561,1.561,1.561, 700
02/07/2020,09:35,1.563,1.563,1.563,1.563, 936
02/07/2020,09:36,1.566,1.568,1.566,1.5675, 4556
02/07/2020,09:37,1.567,1.567,1.567,1.567, 2
02/07/2020,09:37,1.569,1.569,1.569,1.569, 805
02/07/2020,09:39,1.5695,1.5695,1.5695,1.5695, 837
02/07/2020,09:40,1.571,1.571,1.571,1.571, 1579
02/07/2020,09:41,1.5695,1.5695,1.569,1.569, 10733
02/07/2020,09:43,1.566,1.566,1.565,1.565, 1336
02/07/2020,09:45,1.5625,1.563,1.5625,1.563, 1343
02/07/2020,09:46,1.5645,1.5645,1.5645,1.5645, 2
02/07/2020,09:47,1.5645,1.5645,1.5645,1.5645, 157
02/07/2020,09:51,1.5649,1.5649,1.5649,1.5649, 100
02/07/2020,09:52,1.564,1.564,1.56,1.5605, 17942
02/07/2020,09:53,1.5595,1.56,1.556,1.557, 4847
02/07/2020,09:55,1.558,1.5605,1.558,1.5605, 5991
02/07/2020,09:56,1.5625,1.5625,1.5596,1.5596, 2853
02/07/2020,10:01,1.5635,1.5635,1.5635,1.5635, 1382
02/07/2020,10:01,1.564,1.564,1.564,1.564, 1130
02/07/2020,10:02,1.5645,1.565,1.5615,1.562, 18885
02/07/2020,10:03,1.564,1.564,1.564,1.564, 1948
02/07/2020,10:04,1.5645,1.5645,1.5645,1.5645, 365
02/07/2020,10:05,1.565,1.565,1.565,1.565, 571
02/07/2020,10:07,1.5665,1.5665,1.5665,1.5665, 1367
02/07/2020,10:07,1.567,1.5675,1.565,1.565, 7966
02/07/2020,10:08,1.5675,1.568,1.5675,1.568, 3342
02/07/2020,10:09,1.5685,1.5705,1.5685,1.5705, 4395
02/07/2020,10:10,1.571,1.5715,1.5705,1.571, 8737
02/07/2020,10:12,1.5705,1.5705,1.5705,1.5705, 948
02/07/2020,10:13,1.5715,1.572,1.5715,1.572, 1258
02/07/2020,10:15,1.5705,1.5715,1.5705,1.5715, 8257
02/07/2020,10:19,1.5695,1.5695,1.568,1.568, 2294
02/07/2020,10:23,1.569,1.569,1.569,1.569, 1188
02/07/2020,10:28,1.569,1.569,1.569,1.569, 3
02/07/2020,10:28,1.568,1.568,1.568,1.568, 1557
02/07/2020,10:30,1.567,1.567,1.5665,1.5665, 2903
02/07/2020,10:42,1.566,1.566,1.565,1.565, 14559
02/07/2020,10:46,1.564,1.564,1.564,1.564, 2353
02/07/2020,10:50,1.561,1.561,1.561,1.561, 92
02/07/2020,10:52,1.5615,1.565,1.5615,1.5645, 13464
02/07/2020,10:54,1.565,1.565,1.565,1.565, 1102
02/07/2020,10:55,1.5645,1.5645,1.563,1.563, 3218
02/07/2020,10:57,1.5655,1.5655,1.5655,1.5655, 2095
02/07/2020,11:00,1.567,1.567,1.567,1.567, 217
02/07/2020,11:02,1.5665,1.5665,1.5655,1.5655, 5784
02/07/2020,11:04,1.5665,1.5675,1.5665,1.5675, 6572
02/07/2020,11:05,1.5675,1.5685,1.5675,1.568, 35114
02/07/2020,11:06,1.5685,1.569,1.5685,1.569, 1504
02/07/2020,11:08,1.568,1.568,1.568,1.568, 13864
02/07/2020,11:11,1.5671,1.5671,1.5671,1.5671, 528
02/07/2020,11:12,1.568,1.568,1.5665,1.5665, 2693
02/07/2020,11:16,1.5655,1.5665,1.5655,1.5665, 4902
02/07/2020,11:17,1.5675,1.569,1.5675,1.569, 37586
02/07/2020,11:20,1.5695,1.5695,1.5695,1.5695, 3699
02/07/2020,11:21,1.5705,1.5715,1.5705,1.5715, 4829
02/07/2020,11:23,1.572,1.573,1.572,1.573, 1733
02/07/2020,11:25,1.575,1.5755,1.575,1.5755, 5847
02/07/2020,11:26,1.5765,1.5765,1.5765,1.5765, 1494
02/07/2020,11:28,1.575,1.575,1.575,1.575, 68
02/07/2020,11:31,1.576,1.576,1.576,1.576, 2067
02/07/2020,11:31,1.575,1.575,1.5735,1.5735, 6503
02/07/2020,11:33,1.5735,1.5735,1.5735,1.5735, 11
02/07/2020,11:34,1.572,1.572,1.572,1.572, 1751
02/07/2020,11:35,1.571,1.571,1.571,1.571, 706
02/07/2020,11:39,1.5715,1.572,1.5715,1.572, 3394
02/07/2020,11:40,1.571,1.571,1.571,1.571, 850
02/07/2020,11:42,1.572,1.572,1.572,1.572, 1812
02/07/2020,11:44,1.5705,1.5705,1.5695,1.5695, 12806
02/07/2020,11:44,1.5705,1.572,1.5705,1.572, 7990
02/07/2020,11:47,1.5705,1.5705,1.5705,1.5705, 2586
02/07/2020,11:47,1.571,1.572,1.571,1.572, 2638
02/07/2020,11:50,1.572,1.572,1.572,1.572, 562
02/07/2020,11:52,1.5715,1.5715,1.5715,1.5715, 2006
02/07/2020,11:53,1.572,1.572,1.572,1.572, 2130
02/07/2020,11:55,1.5715,1.5715,1.5715,1.5715, 2387
02/07/2020,11:57,1.571,1.571,1.571,1.571, 1039
02/07/2020,12:01,1.571,1.571,1.5695,1.5695, 6526
02/07/2020,12:08,1.5685,1.5685,1.5685,1.5685, 2110
02/07/2020,12:10,1.569,1.569,1.569,1.569, 6
02/07/2020,12:13,1.568,1.571,1.568,1.571, 11098
02/07/2020,12:17,1.571,1.5715,1.571,1.5715, 1362
02/07/2020,12:21,1.5705,1.572,1.5705,1.572, 4461
02/07/2020,12:22,1.572,1.572,1.572,1.572, 910
02/07/2020,12:23,1.5715,1.5715,1.5715,1.5715, 796
02/07/2020,12:26,1.571,1.571,1.5705,1.5705, 5093
02/07/2020,12:27,1.5705,1.5705,1.5705,1.5705, 1801
02/07/2020,12:29,1.5698,1.5698,1.5695,1.5695, 594
02/07/2020,12:31,1.5685,1.5685,1.5685,1.5685, 565
02/07/2020,12:32,1.5686,1.57,1.5686,1.57, 4050
02/07/2020,12:33,1.5685,1.5685,1.5685,1.5685, 699
02/07/2020,12:41,1.568,1.5695,1.568,1.5695, 16945
02/07/2020,12:42,1.5692,1.5692,1.5692,1.5692, 378
02/07/2020,12:43,1.5695,1.5695,1.569,1.569, 2821
02/07/2020,12:50,1.568,1.5705,1.568,1.5705, 22463
02/07/2020,12:50,1.5705,1.5705,1.5705,1.5705, 211
02/07/2020,12:52,1.5705,1.5705,1.5705,1.5705, 3313
02/07/2020,12:56,1.57,1.5702,1.57,1.5702, 3819
02/07/2020,12:56,1.5705,1.5705,1.5705,1.5705, 2064
02/07/2020,12:58,1.5705,1.5705,1.5705,1.5705, 938
02/07/2020,12:59,1.571,1.571,1.571,1.571, 1577
02/07/2020,13:00,1.5703,1.571,1.5703,1.571, 1637
02/07/2020,13:03,1.572,1.572,1.57,1.572, 229
02/07/2020,13:05,1.5705,1.5705,1.5705,1.5705, 5156
02/07/2020,13:06,1.57,1.57,1.57,1.57, 5039
02/07/2020,13:08,1.5715,1.5715,1.5715,1.5715, 2941
02/07/2020,13:09,1.5705,1.5705,1.5705,1.5705, 337
02/07/2020,13:16,1.5708,1.5708,1.5708,1.5708, 10500
02/07/2020,13:16,1.571,1.571,1.571,1.571, 100
02/07/2020,13:23,1.57,1.57,1.57,1.57, 14932
02/07/2020,13:30,1.5705,1.5705,1.57,1.57, 6677
02/07/2020,13:32,1.5675,1.5675,1.5675,1.5675, 1772
02/07/2020,13:34,1.568,1.568,1.568,1.568, 400
02/07/2020,13:37,1.568,1.568,1.568,1.568, 2000
02/07/2020,13:38,1.568,1.568,1.5675,1.5675, 1548
02/07/2020,13:40,1.5677,1.5677,1.5675,1.5675, 2988
02/07/2020,13:54,1.566,1.566,1.566,1.566, 902
02/07/2020,13:54,1.566,1.566,1.5655,1.5655, 3640
02/07/2020,14:00,1.5665,1.5665,1.5665,1.5665, 1917
02/07/2020,14:00,1.567,1.567,1.567,1.567, 2419
02/07/2020,14:09,1.5655,1.5655,1.5655,1.5655, 2261
02/07/2020,14:22,1.5645,1.5655,1.5645,1.5655, 4477
02/07/2020,14:23,1.566,1.566,1.566,1.566, 1614
02/07/2020,14:26,1.5665,1.567,1.5665,1.567, 3025
02/07/2020,14:29,1.566,1.566,1.564,1.5655, 36462
02/07/2020,14:29,1.5645,1.5665,1.5645,1.5665, 20601
02/07/2020,14:31,1.567,1.5675,1.565,1.565, 10694
02/07/2020,14:34,1.565,1.565,1.5645,1.5645, 5587
02/07/2020,14:35,1.564,1.564,1.564,1.564, 1646
02/07/2020,14:37,1.5615,1.5615,1.561,1.561, 2860
02/07/2020,14:40,1.5585,1.5585,1.5585,1.5585, 1431
02/07/2020,14:40,1.559,1.5595,1.559,1.5595, 3991
02/07/2020,14:42,1.559,1.559,1.559,1.559, 1260
02/07/2020,14:44,1.5585,1.5585,1.5585,1.5585, 446
02/07/2020,14:47,1.559,1.559,1.559,1.559, 2249
02/07/2020,14:48,1.5585,1.5585,1.5585,1.5585, 1277
02/07/2020,14:49,1.5575,1.5575,1.5575,1.5575, 1669
02/07/2020,14:49,1.557,1.557,1.557,1.557, 124
02/07/2020,14:51,1.556,1.556,1.556,1.556, 87
02/07/2020,14:52,1.5555,1.5555,1.5555,1.5555, 83
02/07/2020,14:52,1.5565,1.5575,1.556,1.5565, 10038
02/07/2020,14:56,1.56,1.5605,1.5595,1.56, 3005
02/07/2020,14:57,1.5595,1.561,1.5595,1.561, 2860
02/07/2020,14:59,1.559,1.559,1.5585,1.5585, 4981
02/07/2020,15:02,1.5575,1.5575,1.5575,1.5575, 700
02/07/2020,15:03,1.5605,1.5615,1.5605,1.5615, 1300
02/07/2020,15:09,1.561,1.561,1.5605,1.5605, 3080
02/07/2020,15:09,1.5605,1.5605,1.5605,1.5605, 4178
02/07/2020,15:13,1.56,1.56,1.56,1.56, 1204
02/07/2020,15:15,1.5595,1.5595,1.5595,1.5595, 1816
02/07/2020,15:18,1.559,1.559,1.559,1.559, 613
02/07/2020,15:21,1.558,1.558,1.558,1.558, 978
02/07/2020,15:27,1.5585,1.5585,1.5585,1.5585, 35
02/07/2020,15:28,1.558,1.558,1.557,1.557, 869
02/07/2020,15:31,1.558,1.558,1.558,1.558, 150
02/07/2020,15:31,1.5575,1.558,1.5575,1.5575, 4985
02/07/2020,15:33,1.557,1.557,1.557,1.557, 548
02/07/2020,15:35,1.5545,1.5545,1.5545,1.5545, 2763
02/07/2020,15:38,1.555,1.5555,1.554,1.554, 5594
02/07/2020,15:38,1.555,1.5575,1.555,1.5575, 8973
02/07/2020,15:39,1.558,1.558,1.558,1.558, 575
02/07/2020,15:48,1.558,1.558,1.558,1.558, 350
02/07/2020,15:57,1.557,1.557,1.557,1.557, 5345
02/07/2020,15:57,1.558,1.558,1.558,1.558, 36
02/07/2020,15:59,1.558,1.558,1.5565,1.5565, 3682
02/07/2020,15:59,1.556,1.556,1.5545,1.5545, 4877
02/07/2020,16:01,1.5535,1.554,1.5535,1.554, 1291
02/07/2020,16:02,1.5535,1.5535,1.5535,1.5535, 1947
02/07/2020,16:05,1.5525,1.5525,1.5525,1.5525, 922
02/07/2020,16:05,1.5525,1.5525,1.5525,1.5525, 3296
02/07/2020,16:07,1.5515,1.5515,1.5515,1.5515, 735
02/07/2020,16:09,1.5518,1.554,1.5518,1.554, 10374
02/07/2020,16:09,1.5545,1.555,1.5545,1.5545, 2859
02/07/2020,16:10,1.5551,1.5551,1.5551,1.5551, 6
02/07/2020,16:11,1.5546,1.5546,1.5546,1.5546, 1007
02/07/2020,16:13,1.5557,1.5557,1.5557,1.5557, 3000
02/07/2020,16:17,1.555,1.555,1.5525,1.5525, 7669
02/07/2020,16:19,1.5535,1.554,1.5535,1.554, 7148
02/07/2020,16:19,1.555,1.555,1.555,1.555, 2497
02/07/2020,16:21,1.5555,1.5555,1.5555,1.5555, 2414
02/07/2020,16:23,1.556,1.5565,1.556,1.5565, 1138
02/07/2020,16:25,1.5565,1.5565,1.5565,1.5565, 6644
02/07/2020,16:26,1.556,1.556,1.556,1.556, 5424
02/07/2020,16:29,1.556,1.556,1.5545,1.555, 15538
02/07/2020,16:31,1.5555,1.556,1.5555,1.5555, 5146
02/07/2020,16:33,1.555,1.555,1.5545,1.5545, 7902
02/07/2020,16:33,1.554,1.554,1.553,1.553, 16871
02/07/2020,16:35,1.5545,1.5545,1.5525,1.5525, 7763
02/07/2020,16:35,1.5525,1.5525,1.5505,1.5505, 20415
02/07/2020,16:36,1.5505,1.5505,1.5505,1.5505, 839
02/07/2020,16:37,1.5515,1.5515,1.5515,1.5515, 2564
02/07/2020,16:41,1.552,1.552,1.5515,1.5515, 10295
02/07/2020,16:42,1.5515,1.5525,1.5515,1.5525, 14466
02/07/2020,16:42,1.5515,1.5525,1.551,1.552, 12658
02/07/2020,16:43,1.552,1.552,1.552,1.552, 74
02/07/2020,16:44,1.552,1.552,1.552,1.552, 1459
02/07/2020,16:45,1.5525,1.5535,1.5525,1.5535, 7768
02/07/2020,16:46,1.553,1.553,1.553,1.553, 817
02/07/2020,16:48,1.5525,1.5525,1.5525,1.5525, 3393
02/07/2020,16:50,1.5525,1.5545,1.5525,1.5535, 12833
02/07/2020,16:51,1.555,1.555,1.555,1.555, 710
02/07/2020,16:52,1.555,1.556,1.555,1.555, 3362
02/07/2020,16:53,1.556,1.557,1.556,1.557, 1997
02/07/2020,16:56,1.5565,1.5565,1.5565,1.5565, 3501
02/07/2020,16:58,1.556,1.557,1.556,1.557, 8545
02/07/2020,16:58,1.5575,1.558,1.5575,1.558, 2531
02/07/2020,16:59,1.559,1.559,1.559,1.559, 1584
02/07/2020,17:01,1.558,1.558,1.558,1.558, 1437
02/07/2020,17:03,1.5575,1.558,1.557,1.5575, 12307
02/07/2020,17:10,1.557,1.557,1.5565,1.5565, 14643
02/07/2020,17:12,1.5565,1.5565,1.5565,1.5565, 4079
02/07/2020,17:13,1.557,1.557,1.557,1.557, 835
02/07/2020,17:14,1.5575,1.5575,1.557,1.557, 14158
02/07/2020,17:15,1.5575,1.5575,1.557,1.557, 4833
02/07/2020,17:18,1.5565,1.5575,1.5565,1.5575, 2757
02/07/2020,17:19,1.5575,1.5585,1.5575,1.5585, 16598
02/07/2020,17:21,1.5595,1.56,1.559,1.5595, 9517
02/07/2020,17:22,1.5595,1.562,1.559,1.562, 36210
02/07/2020,17:25,1.5615,1.5615,1.5605,1.5605, 7179
02/07/2020,17:26,1.56,1.56,1.559,1.56, 9886
02/07/2020,17:27,1.5603,1.5603,1.5603,1.5603, 1761
02/07/2020,17:28,1.561,1.5615,1.561,1.561, 14684
02/07/2020,17:29,1.5605,1.562,1.5605,1.562, 6905
02/07/2020,17:30,1.5625,1.5625,1.561,1.561, 6367
02/07/2020,17:30,1.561,1.561,1.561,1.561, 820
02/07/2020,17:36,1.559,1.559,1.559,1.559, 1014324
02/07/2020,17:36,1.559,1.559,1.559,1.559, 5000
02/10/2020,09:01,1.55,1.55,1.55,1.55, 128
02/10/2020,09:02,1.553,1.553,1.5525,1.553, 1103
02/10/2020,09:03,1.552,1.552,1.552,1.552, 841
02/10/2020,09:04,1.554,1.5545,1.553,1.5535, 4895
02/10/2020,09:05,1.5555,1.5565,1.5555,1.5558, 3672
02/10/2020,09:07,1.5558,1.5558,1.5558,1.5558, 2050
02/10/2020,09:10,1.5558,1.5558,1.5558,1.5558, 359
02/10/2020,09:11,1.555,1.556,1.554,1.554, 4539
02/10/2020,09:14,1.5523,1.5535,1.5515,1.5515, 3478
02/10/2020,09:17,1.5505,1.5505,1.5505,1.5505, 1477
02/10/2020,09:18,1.5515,1.5515,1.5515,1.5515, 1331
02/10/2020,09:21,1.5525,1.5525,1.5525,1.5525, 1001
02/10/2020,09:31,1.5575,1.5575,1.5575,1.5575, 816
02/10/2020,09:39,1.554,1.554,1.5525,1.5525, 151
02/10/2020,09:41,1.554,1.554,1.5535,1.554, 2013
02/10/2020,09:43,1.553,1.553,1.5485,1.5485, 43714
02/10/2020,09:46,1.547,1.547,1.5455,1.5455, 14391
02/10/2020,09:47,1.5455,1.5465,1.5455,1.5465, 1040
02/10/2020,09:48,1.5465,1.5475,1.5465,1.5475, 5559
02/10/2020,09:51,1.5465,1.5465,1.546,1.546, 3640
02/10/2020,09:52,1.546,1.546,1.5455,1.5455, 2554
02/10/2020,09:54,1.5455,1.546,1.5435,1.5435, 10688
02/10/2020,09:56,1.5445,1.5445,1.5445,1.5445, 1621
02/10/2020,09:58,1.5435,1.5435,1.5435,1.5435, 787
02/10/2020,09:59,1.542,1.542,1.542,1.542, 1008
02/10/2020,10:00,1.5415,1.5425,1.5415,1.5425, 3556
02/10/2020,10:01,1.543,1.543,1.542,1.542, 5629
02/10/2020,10:04,1.5435,1.5435,1.5435,1.5435, 76
02/10/2020,10:05,1.5445,1.547,1.5445,1.547, 4084
02/10/2020,10:06,1.5465,1.548,1.5465,1.548, 7287
02/10/2020,10:09,1.548,1.548,1.548,1.548, 3153
02/10/2020,10:11,1.5475,1.5475,1.5465,1.5465, 3249
02/10/2020,10:12,1.546,1.546,1.5445,1.5445, 3209
02/10/2020,10:16,1.5445,1.5445,1.5445,1.5445, 842
02/10/2020,10:18,1.5435,1.5435,1.5435,1.5435, 2217
02/10/2020,10:20,1.5435,1.5435,1.543,1.543, 187
02/10/2020,10:21,1.542,1.5425,1.542,1.5425, 4007
02/10/2020,10:22,1.5415,1.5415,1.5415,1.5415, 676
02/10/2020,10:24,1.5415,1.5415,1.5415,1.5415, 289
02/10/2020,10:26,1.54,1.54,1.5395,1.5395, 6729
02/10/2020,10:29,1.54,1.54,1.539,1.539, 1619
02/10/2020,10:30,1.539,1.539,1.539,1.539, 1703
02/10/2020,10:31,1.539,1.539,1.539,1.539, 572
02/10/2020,10:32,1.5395,1.5395,1.5395,1.5395, 422
02/10/2020,10:33,1.5405,1.5405,1.5405,1.5405, 210
02/10/2020,10:34,1.5405,1.5405,1.5405,1.5405, 210
02/10/2020,10:35,1.5405,1.541,1.5405,1.541, 1020
02/10/2020,10:36,1.5405,1.5405,1.5405,1.5405, 2210
02/10/2020,10:37,1.5405,1.5405,1.5405,1.5405, 210
02/10/2020,10:39,1.5395,1.541,1.5385,1.541, 5909
02/10/2020,10:41,1.5415,1.5425,1.5415,1.5425, 1716
02/10/2020,10:43,1.5435,1.5435,1.5435,1.5435, 351
02/10/2020,10:43,1.543,1.5435,1.543,1.5435, 852
02/10/2020,10:44,1.5425,1.5425,1.5425,1.5425, 2138
02/10/2020,10:46,1.5425,1.5425,1.542,1.542, 3235
02/10/2020,10:48,1.543,1.543,1.543,1.543, 1629
02/10/2020,10:49,1.543,1.5435,1.543,1.5435, 1177
02/10/2020,10:50,1.5435,1.5435,1.5425,1.5425, 904
02/10/2020,10:51,1.5425,1.5425,1.5425,1.5425, 422
02/10/2020,10:52,1.5425,1.5425,1.5425,1.5425, 420
02/10/2020,10:53,1.544,1.544,1.544,1.544, 420
02/10/2020,10:54,1.544,1.544,1.544,1.544, 1121
02/10/2020,10:56,1.544,1.544,1.543,1.543, 634
02/10/2020,10:59,1.5425,1.5425,1.5425,1.5425, 1555
02/10/2020,11:02,1.5425,1.5425,1.542,1.542, 1152
02/10/2020,11:07,1.5415,1.5415,1.5395,1.5395, 4641
02/10/2020,11:11,1.5385,1.5385,1.5385,1.5385, 70
02/10/2020,11:11,1.539,1.539,1.539,1.539, 40
02/10/2020,11:13,1.5395,1.5395,1.5395,1.5395, 91
02/10/2020,11:14,1.5395,1.5405,1.5395,1.5405, 6447
02/10/2020,11:15,1.541,1.541,1.541,1.541, 84
02/10/2020,11:23,1.5415,1.5415,1.5415,1.5415, 1371
02/10/2020,11:24,1.542,1.542,1.542,1.542, 500
02/10/2020,11:26,1.5425,1.5435,1.5425,1.5435, 3214
02/10/2020,11:27,1.5445,1.5445,1.5445,1.5445, 1160
02/10/2020,11:28,1.5455,1.5455,1.5455,1.5455, 1321
02/10/2020,11:30,1.5455,1.5465,1.5455,1.5465, 738
02/10/2020,11:31,1.5465,1.5465,1.5465,1.5465, 356
02/10/2020,11:32,1.547,1.547,1.547,1.547, 1165
02/10/2020,11:33,1.5465,1.5465,1.546,1.546, 5280
02/10/2020,11:35,1.5475,1.5475,1.547,1.5475, 6689
02/10/2020,11:36,1.5468,1.5468,1.5468,1.5468, 1032
02/10/2020,11:37,1.5465,1.5465,1.5465,1.5465, 520
02/10/2020,11:41,1.547,1.547,1.547,1.547, 22
02/10/2020,11:42,1.5465,1.5465,1.546,1.546, 5217
02/10/2020,11:44,1.547,1.547,1.547,1.547, 1638
02/10/2020,11:45,1.547,1.5475,1.547,1.5475, 9233
02/10/2020,11:46,1.547,1.547,1.547,1.547, 2446
02/10/2020,11:48,1.5475,1.548,1.5475,1.548, 3937
02/10/2020,11:49,1.548,1.5485,1.548,1.5485, 3869
02/10/2020,11:51,1.5485,1.5485,1.5485,1.5485, 980
02/10/2020,11:52,1.5485,1.5485,1.548,1.548, 1405
02/10/2020,11:53,1.5485,1.5495,1.5485,1.5495, 3024
02/10/2020,11:54,1.5485,1.55,1.5485,1.55, 10199
02/10/2020,11:55,1.549,1.549,1.549,1.549, 173
02/10/2020,11:58,1.5495,1.5495,1.5495,1.5495, 1238
02/10/2020,11:59,1.5505,1.5505,1.5505,1.5505, 1661
02/10/2020,12:04,1.5505,1.551,1.5505,1.551, 1373
02/10/2020,12:06,1.5505,1.5505,1.5505,1.5505, 1728
02/10/2020,12:07,1.551,1.551,1.551,1.551, 652
02/10/2020,12:12,1.5505,1.5505,1.5505,1.5505, 1675
02/10/2020,12:13,1.551,1.5515,1.551,1.551, 7360
02/10/2020,12:14,1.5505,1.551,1.5505,1.551, 4676
02/10/2020,12:16,1.552,1.552,1.5515,1.5515, 3191
02/10/2020,12:19,1.5525,1.5535,1.5525,1.5535, 3568
02/10/2020,12:21,1.5525,1.5535,1.5525,1.5535, 3594
02/10/2020,12:23,1.5545,1.5545,1.5545,1.5545, 307
02/10/2020,12:24,1.5545,1.5545,1.5545,1.5545, 636
02/10/2020,12:25,1.5545,1.5545,1.5545,1.5545, 307
02/10/2020,12:26,1.5545,1.5545,1.5545,1.5545, 307
02/10/2020,12:27,1.555,1.555,1.5545,1.5545, 2117
02/10/2020,12:30,1.5545,1.5545,1.5545,1.5545, 307
02/10/2020,12:31,1.5545,1.5545,1.5545,1.5545, 328
02/10/2020,12:32,1.554,1.554,1.554,1.554, 1300
02/10/2020,12:33,1.554,1.554,1.554,1.554, 232
02/10/2020,12:37,1.5525,1.5525,1.5525,1.5525, 8
02/10/2020,12:39,1.551,1.5515,1.551,1.5515, 6045
02/10/2020,12:43,1.551,1.551,1.551,1.551, 322
02/10/2020,12:44,1.551,1.5515,1.551,1.5515, 4958
02/10/2020,12:46,1.552,1.553,1.552,1.553, 4852
02/10/2020,12:47,1.553,1.5535,1.553,1.5535, 1229
02/10/2020,12:48,1.5535,1.5535,1.5535,1.5535, 1030
02/10/2020,12:53,1.554,1.554,1.554,1.554, 56
02/10/2020,12:54,1.554,1.554,1.554,1.554, 104
02/10/2020,12:56,1.5545,1.5545,1.5525,1.5535, 10546
02/10/2020,12:57,1.5535,1.555,1.5535,1.555, 1243
02/10/2020,12:58,1.555,1.555,1.555,1.555, 296
02/10/2020,13:00,1.554,1.5545,1.5535,1.5545, 6300
02/10/2020,13:00,1.552,1.552,1.552,1.552, 1013
02/10/2020,13:03,1.555,1.555,1.555,1.555, 550
02/10/2020,13:06,1.553,1.553,1.552,1.552, 9125
02/10/2020,13:09,1.551,1.551,1.551,1.551, 2000
02/10/2020,13:11,1.5505,1.5505,1.5505,1.5505, 517
02/10/2020,13:11,1.549,1.549,1.548,1.548, 3678
02/10/2020,13:20,1.549,1.549,1.549,1.549, 5035
02/10/2020,13:22,1.5485,1.5485,1.5485,1.5485, 52
02/10/2020,13:22,1.548,1.548,1.548,1.548, 1388
02/10/2020,13:24,1.5485,1.5485,1.5485,1.5485, 696
02/10/2020,13:24,1.549,1.549,1.549,1.549, 337
02/10/2020,13:27,1.549,1.5505,1.549,1.5505, 9558
02/10/2020,13:28,1.551,1.551,1.551,1.551, 1000
02/10/2020,13:29,1.5515,1.5515,1.5515,1.5515, 2377
02/10/2020,13:30,1.551,1.5515,1.551,1.5515, 3226
02/10/2020,13:31,1.5515,1.5515,1.5515,1.5515, 418
02/10/2020,13:32,1.551,1.551,1.5505,1.5505, 2092
02/10/2020,13:34,1.55,1.55,1.55,1.55, 76
02/10/2020,13:35,1.5505,1.5505,1.5505,1.5505, 31
02/10/2020,13:36,1.5515,1.5515,1.551,1.5515, 7241
02/10/2020,13:37,1.5515,1.5515,1.551,1.551, 1542
02/10/2020,13:39,1.551,1.551,1.551,1.551, 417
02/10/2020,13:41,1.552,1.552,1.552,1.552, 3597
02/10/2020,13:42,1.552,1.552,1.552,1.552, 1438
02/10/2020,13:42,1.5518,1.5518,1.5518,1.5518, 1904
02/10/2020,13:48,1.551,1.551,1.5505,1.5505, 4607
02/10/2020,13:50,1.5505,1.5505,1.55,1.55, 11689
02/10/2020,13:51,1.551,1.551,1.549,1.549, 6042
02/10/2020,13:56,1.5485,1.5495,1.5485,1.5495, 3975
02/10/2020,13:57,1.5495,1.5495,1.5495,1.5495, 313
02/10/2020,13:58,1.549,1.5495,1.549,1.5495, 2183
02/10/2020,14:01,1.5485,1.5485,1.548,1.548, 3495
02/10/2020,14:02,1.548,1.548,1.5475,1.548, 5689
02/10/2020,14:03,1.548,1.5485,1.548,1.548, 4960
02/10/2020,14:05,1.5475,1.5475,1.5475,1.5475, 226
02/10/2020,14:06,1.547,1.547,1.546,1.547, 6252
02/10/2020,14:06,1.547,1.547,1.547,1.547, 842
02/10/2020,14:08,1.547,1.547,1.547,1.547, 608
02/10/2020,14:09,1.5475,1.5485,1.5475,1.5485, 4193
02/10/2020,14:11,1.548,1.548,1.5475,1.5475, 1866
02/10/2020,14:12,1.548,1.548,1.548,1.548, 308
02/10/2020,14:13,1.548,1.548,1.548,1.548, 308
02/10/2020,14:15,1.5475,1.5475,1.5475,1.5475, 3414
02/10/2020,14:16,1.548,1.548,1.548,1.548, 421
02/10/2020,14:17,1.548,1.548,1.548,1.548, 308
02/10/2020,14:18,1.548,1.548,1.548,1.548, 308
02/10/2020,14:21,1.548,1.549,1.548,1.549, 4133
02/10/2020,14:25,1.5475,1.5475,1.5475,1.5475, 79
02/10/2020,14:29,1.5465,1.5465,1.5465,1.5465, 323
02/10/2020,14:32,1.547,1.547,1.547,1.547, 518
02/10/2020,14:32,1.547,1.547,1.547,1.547, 1511
02/10/2020,14:34,1.5465,1.5465,1.5465,1.5465, 3266
02/10/2020,14:35,1.546,1.546,1.546,1.546, 710
02/10/2020,14:36,1.546,1.546,1.546,1.546, 2497
02/10/2020,14:38,1.546,1.546,1.546,1.546, 17
02/10/2020,14:40,1.546,1.546,1.546,1.546, 2034
02/10/2020,14:41,1.546,1.5465,1.546,1.546, 13016
02/10/2020,14:42,1.5465,1.5465,1.5465,1.5465, 2401
02/10/2020,14:45,1.547,1.547,1.547,1.547, 3937
02/10/2020,14:46,1.5475,1.5475,1.5475,1.5475, 3709
02/10/2020,14:48,1.5475,1.5475,1.5475,1.5475, 641
02/10/2020,14:51,1.5475,1.5475,1.5475,1.5475, 2766
02/10/2020,14:52,1.5473,1.5475,1.5473,1.5475, 1635
02/10/2020,14:53,1.5475,1.5475,1.5475,1.5475, 983
02/10/2020,14:55,1.5475,1.5475,1.547,1.547, 1361
02/10/2020,14:57,1.5475,1.5475,1.5475,1.5475, 2157
02/10/2020,15:02,1.5475,1.5475,1.547,1.5475, 5909
02/10/2020,15:03,1.547,1.547,1.5465,1.5465, 7446
02/10/2020,15:04,1.5475,1.5475,1.546,1.546, 10201
02/10/2020,15:05,1.546,1.546,1.5455,1.546, 16477
02/10/2020,15:06,1.5465,1.5465,1.546,1.546, 11813
02/10/2020,15:07,1.546,1.5465,1.546,1.5465, 9060
02/10/2020,15:08,1.546,1.546,1.546,1.546, 1706
02/10/2020,15:11,1.5465,1.5465,1.546,1.546, 4388
02/10/2020,15:12,1.5465,1.5465,1.546,1.546, 4949
02/10/2020,15:13,1.5455,1.5455,1.542,1.542, 7491
02/10/2020,15:14,1.5425,1.5425,1.5425,1.5425, 735
02/10/2020,15:15,1.542,1.542,1.542,1.542, 208
02/10/2020,15:16,1.542,1.542,1.542,1.542, 315
02/10/2020,15:19,1.542,1.542,1.542,1.542, 20
02/10/2020,15:19,1.542,1.542,1.542,1.542, 1774
02/10/2020,15:21,1.5415,1.5415,1.5405,1.5415, 12520
02/10/2020,15:22,1.5405,1.5405,1.5405,1.5405, 443
02/10/2020,15:24,1.54,1.54,1.5395,1.54, 8578
02/10/2020,15:25,1.54,1.54,1.54,1.54, 5162
02/10/2020,15:28,1.54,1.5405,1.54,1.5405, 4909
02/10/2020,15:30,1.54,1.5405,1.5395,1.54, 11926
02/10/2020,15:31,1.5405,1.5415,1.54,1.5415, 3937
02/10/2020,15:33,1.5415,1.5425,1.5415,1.5425, 18484
02/10/2020,15:33,1.542,1.5425,1.542,1.5425, 5374
02/10/2020,15:35,1.542,1.543,1.542,1.543, 18196
02/10/2020,15:36,1.5435,1.544,1.5435,1.5435, 6068
02/10/2020,15:37,1.544,1.544,1.544,1.544, 331
02/10/2020,15:40,1.5435,1.544,1.5435,1.544, 2449
02/10/2020,15:41,1.543,1.543,1.5415,1.5415, 4745
02/10/2020,15:43,1.542,1.5425,1.542,1.5425, 4531
02/10/2020,15:44,1.542,1.543,1.542,1.5425, 15504
02/10/2020,15:46,1.542,1.542,1.542,1.542, 169
02/10/2020,15:48,1.5415,1.5415,1.54,1.54, 18274
02/10/2020,15:49,1.54,1.54,1.54,1.54, 433
02/10/2020,15:50,1.5395,1.5395,1.5395,1.5395, 10774
02/10/2020,15:51,1.54,1.54,1.5395,1.5395, 9269
02/10/2020,15:52,1.5398,1.54,1.5395,1.54, 7631
02/10/2020,15:53,1.5405,1.5405,1.5405,1.5405, 3819
02/10/2020,15:53,1.5405,1.5405,1.54,1.54, 830
02/10/2020,15:56,1.5395,1.5405,1.5395,1.54, 13026
02/10/2020,15:57,1.54,1.54,1.54,1.54, 2424
02/10/2020,15:58,1.5405,1.5405,1.5405,1.5405, 4443
02/10/2020,15:59,1.5405,1.541,1.5405,1.541, 6023
02/10/2020,15:59,1.541,1.541,1.541,1.541, 1453
02/10/2020,16:01,1.5405,1.5405,1.5405,1.5405, 2006
02/10/2020,16:02,1.5405,1.5415,1.5405,1.541, 4490
02/10/2020,16:03,1.5405,1.5405,1.5395,1.5395, 10189
02/10/2020,16:05,1.5395,1.5395,1.5395,1.5395, 2065
02/10/2020,16:06,1.54,1.54,1.54,1.54, 2674
02/10/2020,16:09,1.54,1.54,1.54,1.54, 2234
02/10/2020,16:10,1.54,1.54,1.5395,1.54, 25574
02/10/2020,16:11,1.5395,1.5398,1.5395,1.5397, 9624
02/10/2020,16:12,1.54,1.54,1.54,1.54, 3589
02/10/2020,16:13,1.5405,1.5405,1.54,1.5405, 6769
02/10/2020,16:14,1.54,1.54,1.5395,1.54, 8769
02/10/2020,16:15,1.54,1.54,1.54,1.54, 2305
02/10/2020,16:16,1.54,1.541,1.54,1.541, 7175
02/10/2020,16:17,1.541,1.541,1.541,1.541, 275
02/10/2020,16:18,1.541,1.541,1.541,1.541, 2147
02/10/2020,16:19,1.5415,1.5415,1.541,1.541, 9854
02/10/2020,16:22,1.54,1.54,1.5395,1.54, 11467
02/10/2020,16:26,1.5395,1.5395,1.5395,1.5395, 9033
02/10/2020,16:27,1.5395,1.5395,1.5395,1.5395, 2348
02/10/2020,16:28,1.5395,1.5395,1.5395,1.5395, 8048
02/10/2020,16:29,1.5398,1.5398,1.5398,1.5398, 562
02/10/2020,16:31,1.5395,1.54,1.5395,1.5395, 31017
02/10/2020,16:32,1.54,1.54,1.54,1.54, 40
02/10/2020,16:33,1.5398,1.54,1.5398,1.54, 652
02/10/2020,16:35,1.54,1.54,1.54,1.54, 7571
02/10/2020,16:36,1.5395,1.5395,1.5395,1.5395, 11125
02/10/2020,16:37,1.5395,1.5395,1.5395,1.5395, 12424
02/10/2020,16:38,1.5395,1.5395,1.5395,1.5395, 4672
02/10/2020,16:39,1.54,1.54,1.5395,1.54, 15141
02/10/2020,16:41,1.54,1.54,1.54,1.54, 6935
02/10/2020,16:42,1.5395,1.54,1.539,1.5397, 27492
02/10/2020,16:43,1.5395,1.5395,1.5395,1.5395, 8424
02/10/2020,16:45,1.5395,1.5395,1.5395,1.5395, 4659
02/10/2020,16:45,1.54,1.54,1.54,1.54, 1386
02/10/2020,16:47,1.5395,1.5395,1.5395,1.5395, 725
02/10/2020,16:50,1.54,1.54,1.54,1.54, 2054
02/10/2020,16:52,1.54,1.54,1.54,1.54, 1000
02/10/2020,16:55,1.5395,1.54,1.5395,1.5395, 5357
02/10/2020,16:56,1.5395,1.5395,1.539,1.539, 5666
02/10/2020,16:59,1.5385,1.5385,1.5385,1.5385, 3584
02/10/2020,17:00,1.538,1.538,1.538,1.538, 1013
02/10/2020,17:01,1.538,1.538,1.538,1.538, 6744
02/10/2020,17:02,1.538,1.538,1.538,1.538, 1055
02/10/2020,17:03,1.538,1.538,1.5375,1.5375, 5081
02/10/2020,17:04,1.538,1.538,1.5378,1.5378, 5146
02/10/2020,17:05,1.538,1.538,1.537,1.537, 19672
02/10/2020,17:06,1.5365,1.5365,1.5365,1.5365, 2422
02/10/2020,17:07,1.5365,1.5365,1.536,1.536, 3405
02/10/2020,17:08,1.5362,1.5362,1.5362,1.5362, 568
02/10/2020,17:09,1.536,1.536,1.535,1.5355, 24978
02/10/2020,17:10,1.535,1.535,1.5345,1.5345, 3679
02/10/2020,17:12,1.534,1.534,1.534,1.534, 1920
02/10/2020,17:13,1.5335,1.534,1.5335,1.534, 8728
02/10/2020,17:14,1.5345,1.5345,1.534,1.534, 9759
02/10/2020,17:15,1.5345,1.5345,1.534,1.5345, 5303
02/10/2020,17:16,1.5345,1.5345,1.5345,1.5345, 1292
02/10/2020,17:17,1.534,1.534,1.5335,1.5335, 8630
02/10/2020,17:18,1.5335,1.534,1.5335,1.5335, 17843
02/10/2020,17:19,1.5335,1.5355,1.5335,1.5355, 21624
02/10/2020,17:19,1.5355,1.5355,1.5355,1.5355, 1170
02/10/2020,17:21,1.536,1.5375,1.536,1.5375, 8152
02/10/2020,17:23,1.5365,1.537,1.5365,1.537, 9480
02/10/2020,17:25,1.537,1.537,1.5365,1.537, 6751
02/10/2020,17:26,1.5365,1.5365,1.5365,1.5365, 627
02/10/2020,17:27,1.537,1.537,1.537,1.537, 7391
02/10/2020,17:28,1.537,1.5375,1.537,1.5375, 5762
02/10/2020,17:29,1.5375,1.5375,1.5375,1.5375, 945
02/10/2020,17:30,1.5375,1.5375,1.537,1.537, 4483
02/10/2020,17:30,1.5375,1.5375,1.5375,1.5375, 425
02/10/2020,17:36,1.5325,1.5325,1.5325,1.5325, 736550
02/11/2020,09:01,1.53,1.53,1.53,1.53, 170
02/11/2020,09:06,1.543,1.543,1.543,1.543, 493
02/11/2020,09:08,1.5435,1.5435,1.543,1.5435, 678
02/11/2020,09:10,1.5465,1.5465,1.5465,1.5465, 137
02/11/2020,09:12,1.548,1.548,1.548,1.548, 2689
02/11/2020,09:14,1.549,1.549,1.5475,1.5475, 1906
02/11/2020,09:15,1.5475,1.5475,1.5455,1.5455, 11053
02/11/2020,09:15,1.5445,1.5445,1.5445,1.5445, 86
02/11/2020,09:17,1.5425,1.5425,1.5415,1.542, 5018
02/11/2020,09:18,1.542,1.545,1.542,1.545, 3110
02/11/2020,09:24,1.543,1.543,1.543,1.543, 1783
02/11/2020,09:26,1.543,1.543,1.5415,1.5415, 2575
02/11/2020,09:27,1.54,1.54,1.54,1.54, 239
02/11/2020,09:29,1.542,1.542,1.542,1.542, 1962
02/11/2020,09:30,1.542,1.542,1.542,1.542, 677
02/11/2020,09:31,1.5415,1.5435,1.5405,1.5435, 10064
02/11/2020,09:32,1.542,1.542,1.542,1.542, 1773
02/11/2020,09:38,1.54,1.54,1.538,1.538, 7036
02/11/2020,09:40,1.5385,1.5385,1.538,1.538, 2594
02/11/2020,09:41,1.539,1.539,1.5385,1.5385, 1142
02/11/2020,09:43,1.539,1.539,1.539,1.539, 700
02/11/2020,09:44,1.5395,1.5395,1.5385,1.5385, 552
02/11/2020,09:46,1.5375,1.5375,1.5355,1.5355, 8750
02/11/2020,09:47,1.534,1.534,1.5315,1.5315, 13088
02/11/2020,09:48,1.531,1.531,1.527,1.5275, 28650
02/11/2020,09:49,1.529,1.529,1.5275,1.528, 4256
02/11/2020,09:51,1.5275,1.528,1.5275,1.528, 2603
02/11/2020,09:52,1.529,1.529,1.529,1.529, 243
02/11/2020,09:53,1.53,1.5305,1.53,1.5305, 1477
02/11/2020,09:53,1.5305,1.5305,1.5305,1.5305, 122
02/11/2020,09:55,1.53,1.53,1.5275,1.5275, 3949
02/11/2020,09:55,1.5285,1.529,1.5285,1.529, 1247
02/11/2020,09:59,1.5295,1.531,1.5295,1.5303, 5698
02/11/2020,10:00,1.531,1.531,1.531,1.531, 789
02/11/2020,10:01,1.5285,1.5285,1.525,1.525, 4822
02/11/2020,10:01,1.5255,1.5255,1.5255,1.5255, 1260
02/11/2020,10:04,1.525,1.525,1.525,1.525, 441
02/11/2020,10:05,1.523,1.524,1.5205,1.5205, 33005
02/11/2020,10:06,1.52,1.52,1.5187,1.5187, 4767
02/11/2020,10:07,1.5195,1.52,1.5195,1.52, 6653
02/11/2020,10:10,1.5203,1.5203,1.5203,1.5203, 1000
02/11/2020,10:13,1.52,1.52,1.518,1.518, 2807
02/11/2020,10:13,1.5185,1.519,1.5185,1.519, 1053
02/11/2020,10:15,1.519,1.519,1.519,1.519, 138
02/11/2020,10:17,1.5195,1.52,1.5195,1.52, 2359
02/11/2020,10:17,1.52,1.52,1.5195,1.5195, 193
02/11/2020,10:19,1.519,1.519,1.519,1.519, 502
02/11/2020,10:20,1.5195,1.5195,1.5185,1.5185, 8011
02/11/2020,10:21,1.518,1.5185,1.514,1.514, 33143
02/11/2020,10:22,1.516,1.5165,1.5145,1.516, 13553
02/11/2020,10:25,1.5183,1.5183,1.5183,1.5183, 329
02/11/2020,10:26,1.5195,1.5205,1.5185,1.5185, 7406
02/11/2020,10:27,1.5165,1.517,1.516,1.5165, 3668
02/11/2020,10:28,1.5165,1.5175,1.5165,1.5165, 7382
02/11/2020,10:31,1.516,1.5165,1.515,1.5155, 4666
02/11/2020,10:34,1.514,1.514,1.513,1.513, 3101
02/11/2020,10:39,1.5127,1.5127,1.5127,1.5127, 1700
02/11/2020,10:41,1.512,1.512,1.511,1.511, 2087
02/11/2020,10:42,1.511,1.511,1.51,1.5105, 11503
02/11/2020,10:43,1.5105,1.5113,1.51,1.5113, 8391
02/11/2020,10:47,1.5115,1.5115,1.509,1.509, 24236
02/11/2020,10:48,1.5095,1.5095,1.5095,1.5095, 1244
02/11/2020,10:49,1.5095,1.513,1.5095,1.513, 3409
02/11/2020,10:50,1.5155,1.5155,1.5155,1.5155, 750
02/11/2020,10:51,1.516,1.516,1.516,1.516, 895
02/11/2020,10:57,1.5158,1.5158,1.5158,1.5158, 2987
02/11/2020,10:57,1.5165,1.5195,1.5165,1.518, 15797
02/11/2020,10:59,1.52,1.5205,1.52,1.5205, 1472
02/11/2020,11:01,1.5215,1.5215,1.5215,1.5215, 3689
02/11/2020,11:02,1.5215,1.5215,1.5215,1.5215, 1054
02/11/2020,11:03,1.522,1.524,1.522,1.524, 8758
02/11/2020,11:04,1.5245,1.5245,1.5245,1.5245, 887
02/11/2020,11:05,1.524,1.524,1.524,1.524, 1
02/11/2020,11:14,1.524,1.524,1.524,1.524, 4067
02/11/2020,11:15,1.5245,1.5245,1.5245,1.5245, 900
02/11/2020,11:17,1.5238,1.5238,1.5238,1.5238, 1000
02/11/2020,11:22,1.523,1.528,1.5215,1.523, 14622
02/11/2020,11:23,1.5245,1.526,1.5245,1.526, 2856
02/11/2020,11:32,1.5255,1.5255,1.5255,1.5255, 2410
02/11/2020,11:34,1.5245,1.5245,1.5245,1.5245, 4978
02/11/2020,11:37,1.5245,1.5245,1.522,1.522, 9013
02/11/2020,11:38,1.5225,1.523,1.5215,1.522, 8416
02/11/2020,11:41,1.522,1.522,1.522,1.522, 2000
02/11/2020,11:42,1.521,1.521,1.521,1.521, 3717
02/11/2020,11:43,1.5215,1.5215,1.5215,1.5215, 950
02/11/2020,11:45,1.52,1.5205,1.518,1.518, 1909
02/11/2020,11:46,1.5173,1.5173,1.5173,1.5173, 350
02/11/2020,11:52,1.518,1.518,1.5165,1.5165, 13145
02/11/2020,11:56,1.5165,1.517,1.5165,1.517, 4533
02/11/2020,11:58,1.517,1.517,1.517,1.517, 2198
02/11/2020,12:02,1.5165,1.5165,1.516,1.516, 2641
02/11/2020,12:03,1.5165,1.5165,1.5165,1.5165, 152
02/11/2020,12:04,1.5165,1.5165,1.5165,1.5165, 312
02/11/2020,12:05,1.5165,1.5165,1.5165,1.5165, 1897
02/11/2020,12:07,1.516,1.516,1.516,1.516, 5474
02/11/2020,12:09,1.5165,1.518,1.5165,1.518, 9922
02/11/2020,12:10,1.5175,1.5175,1.5175,1.5175, 2051
02/11/2020,12:12,1.5185,1.5195,1.5185,1.5195, 8451
02/11/2020,12:13,1.5205,1.5223,1.5205,1.5223, 7354
02/11/2020,12:14,1.523,1.524,1.523,1.524, 3421
02/11/2020,12:14,1.5245,1.5245,1.5245,1.5245, 2904
02/11/2020,12:17,1.5245,1.5245,1.5245,1.5245, 1791
02/11/2020,12:21,1.524,1.527,1.5215,1.5225, 88955
02/11/2020,12:22,1.5225,1.5225,1.5225,1.5225, 337
02/11/2020,12:23,1.523,1.5235,1.523,1.523, 9937
02/11/2020,12:24,1.5235,1.5235,1.5235,1.5235, 1617
02/11/2020,12:29,1.5235,1.5235,1.5225,1.5225, 6083
02/11/2020,12:31,1.522,1.522,1.52,1.52, 8136
02/11/2020,12:31,1.52,1.52,1.52,1.52, 246
02/11/2020,12:34,1.52,1.5205,1.52,1.5205, 882
02/11/2020,12:36,1.5195,1.5195,1.5195,1.5195, 260
02/11/2020,12:38,1.52,1.521,1.52,1.5205, 3722
02/11/2020,12:39,1.5215,1.5225,1.5208,1.5208, 10294
02/11/2020,12:41,1.5205,1.5208,1.5195,1.5208, 5718
02/11/2020,12:43,1.522,1.522,1.522,1.522, 715
02/11/2020,12:45,1.5235,1.5235,1.5235,1.5235, 2260
02/11/2020,12:48,1.5235,1.5235,1.5235,1.5235, 3445
02/11/2020,12:52,1.524,1.5245,1.524,1.524, 5074
02/11/2020,12:53,1.523,1.523,1.523,1.523, 563
02/11/2020,12:57,1.523,1.523,1.522,1.5225, 5415
02/11/2020,12:59,1.522,1.5225,1.522,1.5225, 1941
02/11/2020,13:03,1.5215,1.5215,1.5215,1.5215, 2192
02/11/2020,13:04,1.5225,1.5225,1.5225,1.5225, 686
02/11/2020,13:05,1.522,1.522,1.5205,1.5205, 10911
02/11/2020,13:07,1.5195,1.5195,1.5195,1.5195, 4000
02/11/2020,13:09,1.5195,1.5195,1.5195,1.5195, 2000
02/11/2020,13:09,1.519,1.5195,1.519,1.5195, 2427
02/11/2020,13:11,1.52,1.5225,1.52,1.5225, 9862
02/11/2020,13:13,1.522,1.522,1.522,1.522, 1574
02/11/2020,13:15,1.522,1.522,1.522,1.522, 723
02/11/2020,13:19,1.5225,1.5225,1.5225,1.5225, 2634
02/11/2020,13:22,1.5223,1.5223,1.522,1.522, 2831
02/11/2020,13:23,1.5225,1.523,1.5225,1.523, 6100
02/11/2020,13:24,1.523,1.523,1.523,1.523, 705
02/11/2020,13:25,1.524,1.5245,1.524,1.5245, 1711
02/11/2020,13:27,1.5255,1.5255,1.5255,1.5255, 613
02/11/2020,13:27,1.5257,1.5257,1.5257,1.5257, 3465
02/11/2020,13:34,1.5258,1.5258,1.5258,1.5258, 2500
02/11/2020,13:39,1.525,1.525,1.5245,1.5245, 8387
02/11/2020,13:41,1.5245,1.5245,1.524,1.5245, 10106
02/11/2020,13:41,1.5235,1.5235,1.523,1.523, 3717
02/11/2020,13:45,1.524,1.524,1.524,1.524, 2996
02/11/2020,13:47,1.523,1.523,1.5225,1.523, 3785
02/11/2020,13:49,1.5235,1.5235,1.5235,1.5235, 1189
02/11/2020,13:52,1.5245,1.525,1.524,1.5245, 14435
02/11/2020,13:54,1.525,1.525,1.525,1.525, 9718
02/11/2020,13:54,1.5255,1.5255,1.525,1.525, 6102
02/11/2020,13:56,1.525,1.525,1.525,1.525, 260
02/11/2020,13:58,1.5245,1.5245,1.524,1.524, 4725
02/11/2020,14:00,1.5245,1.5245,1.5245,1.5245, 52
02/11/2020,14:01,1.524,1.524,1.5235,1.5235, 1105
02/11/2020,14:03,1.523,1.523,1.523,1.523, 1175
02/11/2020,14:05,1.5235,1.5235,1.5235,1.5235, 2308
02/11/2020,14:11,1.523,1.523,1.5215,1.5215, 3885
02/11/2020,14:21,1.5205,1.5205,1.52,1.52, 9390
02/11/2020,14:24,1.519,1.519,1.519,1.519, 2997
02/11/2020,14:26,1.5185,1.5185,1.518,1.518, 3836
02/11/2020,14:27,1.5175,1.5175,1.5175,1.5175, 2145
02/11/2020,14:28,1.518,1.518,1.518,1.518, 322
02/11/2020,14:29,1.5185,1.5185,1.5177,1.5177, 5324
02/11/2020,14:31,1.519,1.5195,1.519,1.5195, 2860
02/11/2020,14:32,1.5185,1.5185,1.5185,1.5185, 1341
02/11/2020,14:35,1.519,1.52,1.519,1.52, 2233
02/11/2020,14:36,1.52,1.52,1.5195,1.52, 5605
02/11/2020,14:36,1.52,1.52,1.52,1.52, 2000
02/11/2020,14:39,1.519,1.519,1.5185,1.5185, 954
02/11/2020,14:41,1.5185,1.5185,1.518,1.518, 5192
02/11/2020,14:42,1.5185,1.5185,1.5185,1.5185, 1504
02/11/2020,14:43,1.519,1.519,1.519,1.519, 2327
02/11/2020,14:48,1.519,1.519,1.519,1.519, 2186
02/11/2020,14:48,1.519,1.519,1.519,1.519, 3648
02/11/2020,14:49,1.519,1.519,1.519,1.519, 1200
02/11/2020,14:51,1.519,1.519,1.5185,1.5185, 2727
02/11/2020,14:52,1.518,1.518,1.518,1.518, 952
02/11/2020,14:55,1.5175,1.5175,1.517,1.517, 7964
02/11/2020,14:55,1.517,1.517,1.517,1.517, 661
02/11/2020,14:57,1.5175,1.518,1.5155,1.516, 55640
02/11/2020,15:00,1.517,1.5175,1.516,1.516, 12558
02/11/2020,15:01,1.5163,1.517,1.5163,1.517, 3695
02/11/2020,15:02,1.5175,1.518,1.5175,1.518, 1738
02/11/2020,15:04,1.5185,1.5185,1.518,1.518, 4112
02/11/2020,15:05,1.518,1.518,1.5165,1.5165, 17676
02/11/2020,15:06,1.516,1.517,1.5155,1.517, 18282
02/11/2020,15:07,1.5175,1.5175,1.5175,1.5175, 2789
02/11/2020,15:08,1.518,1.5185,1.518,1.5185, 3912
02/11/2020,15:09,1.5185,1.5185,1.5185,1.5185, 1349
02/11/2020,15:09,1.519,1.519,1.519,1.519, 1443
02/11/2020,15:11,1.52,1.522,1.52,1.522, 14150
02/11/2020,15:13,1.522,1.522,1.522,1.522, 365
02/11/2020,15:15,1.5225,1.5235,1.5225,1.5235, 6185
02/11/2020,15:16,1.5235,1.5235,1.5235,1.5235, 1370
02/11/2020,15:19,1.5235,1.5255,1.5235,1.5255, 5655
02/11/2020,15:19,1.5255,1.5255,1.5255,1.5255, 548
02/11/2020,15:21,1.5255,1.5255,1.525,1.525, 2904
02/11/2020,15:23,1.525,1.525,1.5245,1.5245, 6300
02/11/2020,15:24,1.524,1.524,1.524,1.524, 21538
02/11/2020,15:26,1.524,1.5245,1.524,1.5245, 6855
02/11/2020,15:27,1.524,1.524,1.524,1.524, 2009
02/11/2020,15:29,1.524,1.5245,1.524,1.5245, 7513
02/11/2020,15:31,1.524,1.524,1.523,1.523, 3343
02/11/2020,15:32,1.5235,1.5235,1.5235,1.5235, 1033
02/11/2020,15:33,1.523,1.523,1.523,1.523, 1224
02/11/2020,15:34,1.524,1.5245,1.524,1.5245, 4536
02/11/2020,15:38,1.525,1.525,1.5235,1.5235, 10939
02/11/2020,15:39,1.523,1.5235,1.5228,1.5228, 8290
02/11/2020,15:40,1.5225,1.5225,1.5225,1.5225, 1771
02/11/2020,15:42,1.522,1.522,1.522,1.522, 1211
02/11/2020,15:43,1.5225,1.523,1.5225,1.523, 4137
02/11/2020,15:45,1.523,1.523,1.523,1.523, 827
02/11/2020,15:47,1.523,1.524,1.523,1.524, 3312
02/11/2020,15:50,1.5255,1.5255,1.5255,1.5255, 3170
02/11/2020,15:50,1.526,1.526,1.526,1.526, 674
02/11/2020,15:52,1.525,1.525,1.525,1.525, 337
02/11/2020,15:53,1.5255,1.5275,1.5255,1.5275, 9968
02/11/2020,15:54,1.5275,1.528,1.5275,1.528, 6187
02/11/2020,15:56,1.529,1.529,1.529,1.529, 1218
02/11/2020,15:57,1.53,1.53,1.53,1.53, 4706
02/11/2020,15:59,1.5305,1.5305,1.5305,1.5305, 300
02/11/2020,16:01,1.53,1.5315,1.53,1.5315, 15923
02/11/2020,16:06,1.533,1.5335,1.533,1.533, 22329
02/11/2020,16:06,1.5335,1.5335,1.5335,1.5335, 2304
02/11/2020,16:09,1.533,1.533,1.532,1.5325, 18714
02/11/2020,16:09,1.5315,1.5315,1.5305,1.5305, 4731
02/11/2020,16:11,1.5295,1.5305,1.5295,1.53, 9344
02/11/2020,16:12,1.532,1.5325,1.532,1.5325, 1261
02/11/2020,16:12,1.532,1.532,1.532,1.532, 426
02/11/2020,16:16,1.531,1.531,1.531,1.531, 2187
02/11/2020,16:17,1.53,1.531,1.5295,1.531, 10034
02/11/2020,16:18,1.5305,1.531,1.5305,1.531, 6340
02/11/2020,16:22,1.531,1.531,1.5305,1.5305, 12695
02/11/2020,16:23,1.53,1.53,1.528,1.529, 39173
02/11/2020,16:24,1.528,1.528,1.528,1.528, 1468
02/11/2020,16:25,1.529,1.529,1.529,1.529, 3654
02/11/2020,16:26,1.5295,1.53,1.5295,1.53, 7615
02/11/2020,16:33,1.53,1.5305,1.53,1.5305, 12351
02/11/2020,16:34,1.53,1.5305,1.53,1.5305, 7322
02/11/2020,16:37,1.53,1.53,1.5295,1.5295, 2873
02/11/2020,16:38,1.5295,1.5295,1.528,1.5285, 6309
02/11/2020,16:41,1.529,1.5295,1.529,1.5295, 5721
02/11/2020,16:42,1.53,1.53,1.53,1.53, 6934
02/11/2020,16:44,1.531,1.531,1.5295,1.5295, 7733
02/11/2020,16:45,1.5295,1.5295,1.528,1.528, 5217
02/11/2020,16:46,1.5285,1.5285,1.5281,1.5281, 5301
02/11/2020,16:47,1.528,1.528,1.528,1.528, 3397
02/11/2020,16:48,1.528,1.528,1.5275,1.5275, 9332
02/11/2020,16:50,1.527,1.5275,1.5265,1.5275, 26274
02/11/2020,16:51,1.528,1.529,1.528,1.529, 17584
02/11/2020,16:53,1.53,1.53,1.53,1.53, 3254
02/11/2020,16:54,1.5305,1.5305,1.5305,1.5305, 1707
02/11/2020,16:55,1.531,1.531,1.531,1.531, 1181
02/11/2020,16:57,1.5305,1.5305,1.5305,1.5305, 1535
02/11/2020,16:59,1.53,1.53,1.529,1.529, 21689
02/11/2020,17:00,1.529,1.529,1.529,1.529, 4289
02/11/2020,17:01,1.529,1.529,1.529,1.529, 1342
02/11/2020,17:01,1.5295,1.5295,1.529,1.5295, 6402
02/11/2020,17:03,1.5295,1.53,1.5295,1.5295, 7897
02/11/2020,17:06,1.5305,1.533,1.5305,1.533, 16045
02/11/2020,17:07,1.5335,1.534,1.533,1.534, 1724
02/11/2020,17:08,1.5355,1.5355,1.5345,1.5355, 6173
02/11/2020,17:11,1.5365,1.537,1.536,1.5365, 28235
02/11/2020,17:13,1.537,1.537,1.537,1.537, 2003
02/11/2020,17:15,1.5375,1.5385,1.5375,1.538, 9536
02/11/2020,17:15,1.5375,1.5375,1.5375,1.5375, 6468
02/11/2020,17:17,1.5375,1.5375,1.5375,1.5375, 12847
02/11/2020,17:18,1.537,1.537,1.536,1.5365, 23415
02/11/2020,17:18,1.5365,1.5365,1.5365,1.5365, 1910
02/11/2020,17:20,1.5365,1.5365,1.5355,1.536, 12846
02/11/2020,17:22,1.536,1.536,1.536,1.536, 13363
02/11/2020,17:23,1.536,1.5365,1.536,1.5365, 7099
02/11/2020,17:26,1.536,1.537,1.536,1.537, 2515
02/11/2020,17:27,1.5365,1.5365,1.5365,1.5365, 11908
02/11/2020,17:28,1.536,1.536,1.535,1.536, 22574
02/11/2020,17:29,1.537,1.5385,1.5368,1.5385, 16881
02/11/2020,17:30,1.5395,1.5395,1.5395,1.5395, 674
02/11/2020,17:36,1.5375,1.5375,1.5375,1.5375, 1296942
02/12/2020,10:00,1.5333,1.5333,1.533,1.533, 880
02/12/2020,10:01,1.532,1.5325,1.532,1.532, 5548
02/12/2020,10:02,1.532,1.5325,1.5305,1.5305, 18201
02/12/2020,10:05,1.5305,1.535,1.53,1.534, 24273
02/12/2020,10:07,1.536,1.536,1.5325,1.5325, 7905
02/12/2020,10:08,1.532,1.532,1.532,1.532, 346
02/12/2020,10:12,1.5315,1.532,1.531,1.531, 6130
02/12/2020,10:15,1.533,1.533,1.5325,1.533, 1036
02/12/2020,10:16,1.533,1.533,1.531,1.531, 3375
02/12/2020,10:17,1.53,1.53,1.5285,1.5285, 3462
02/12/2020,10:18,1.529,1.53,1.529,1.529, 4315
02/12/2020,10:21,1.5285,1.529,1.5285,1.529, 1708
02/12/2020,10:22,1.5285,1.5285,1.5285,1.5285, 193
02/12/2020,10:23,1.5285,1.5285,1.5285,1.5285, 1045
02/12/2020,10:24,1.5285,1.529,1.528,1.528, 7010
02/12/2020,10:27,1.5275,1.5275,1.5275,1.5275, 228
02/12/2020,10:29,1.5273,1.5273,1.5273,1.5273, 398
02/12/2020,10:30,1.5265,1.5265,1.5265,1.5265, 1030
02/12/2020,10:31,1.5265,1.5265,1.5255,1.5265, 7588
02/12/2020,10:38,1.529,1.529,1.5275,1.5275, 2771
02/12/2020,10:39,1.5275,1.5275,1.5275,1.5275, 2602
02/12/2020,10:42,1.5285,1.531,1.5285,1.531, 3745
02/12/2020,10:44,1.531,1.531,1.531,1.531, 790
02/12/2020,10:47,1.5315,1.5315,1.5315,1.5315, 3247
02/12/2020,10:49,1.5305,1.5305,1.53,1.53, 3699
02/12/2020,10:58,1.5298,1.5298,1.5298,1.5298, 723
02/12/2020,11:02,1.5305,1.5305,1.5295,1.5295, 4004
02/12/2020,11:06,1.529,1.529,1.529,1.529, 993
02/12/2020,11:08,1.5305,1.531,1.5305,1.531, 5773
02/12/2020,11:10,1.532,1.532,1.532,1.532, 379
02/12/2020,11:11,1.5305,1.5305,1.5305,1.5305, 2293
02/12/2020,11:13,1.532,1.532,1.532,1.532, 2268
02/12/2020,11:14,1.532,1.532,1.532,1.532, 2233
02/12/2020,11:15,1.5327,1.5327,1.5327,1.5327, 1500
02/12/2020,11:16,1.532,1.532,1.532,1.532, 924
02/12/2020,11:17,1.532,1.532,1.532,1.532, 1110
02/12/2020,11:21,1.5315,1.5315,1.531,1.531, 1685
02/12/2020,11:22,1.532,1.532,1.532,1.532, 2956
02/12/2020,11:23,1.533,1.533,1.533,1.533, 1755
02/12/2020,11:24,1.533,1.534,1.533,1.534, 4090
02/12/2020,11:25,1.534,1.534,1.534,1.534, 1111
02/12/2020,11:27,1.533,1.533,1.533,1.533, 2477
02/12/2020,11:28,1.5335,1.5335,1.532,1.532, 42494
02/12/2020,11:29,1.533,1.534,1.533,1.5335, 7746
02/12/2020,11:30,1.5332,1.5332,1.5332,1.5332, 2000
02/12/2020,11:31,1.5335,1.534,1.5325,1.5325, 6977
02/12/2020,11:32,1.533,1.533,1.5325,1.5325, 5068
02/12/2020,11:33,1.5325,1.534,1.5325,1.534, 5329
02/12/2020,11:35,1.5335,1.5335,1.5325,1.5325, 4069
02/12/2020,11:36,1.533,1.5335,1.5325,1.5325, 2673
02/12/2020,11:37,1.532,1.532,1.532,1.532, 1044
02/12/2020,11:38,1.5325,1.534,1.5325,1.534, 6277
02/12/2020,11:39,1.5345,1.5345,1.5345,1.5345, 576
02/12/2020,11:40,1.535,1.5375,1.534,1.5365, 28348
02/12/2020,11:41,1.535,1.535,1.5345,1.5345, 1570
02/12/2020,11:42,1.535,1.535,1.5345,1.5345, 1360
02/12/2020,11:43,1.537,1.5375,1.5355,1.5365, 13737
02/12/2020,11:44,1.5355,1.5355,1.5355,1.5355, 1900
02/12/2020,11:47,1.5365,1.537,1.5365,1.537, 6392
02/12/2020,11:48,1.5375,1.5375,1.5375,1.5375, 1888
02/12/2020,11:49,1.537,1.537,1.537,1.537, 771
02/12/2020,11:51,1.5365,1.5365,1.5355,1.5355, 4733
02/12/2020,11:52,1.5365,1.5365,1.5365,1.5365, 521
02/12/2020,11:53,1.536,1.537,1.536,1.537, 2797
02/12/2020,11:55,1.537,1.537,1.537,1.537, 1016
02/12/2020,11:56,1.537,1.54,1.537,1.54, 20208
02/12/2020,11:57,1.539,1.539,1.5385,1.5385, 6973
02/12/2020,11:58,1.539,1.539,1.539,1.539, 3597
02/12/2020,11:59,1.5385,1.5385,1.5385,1.5385, 702
02/12/2020,12:03,1.5395,1.54,1.539,1.5395, 27565
02/12/2020,12:04,1.5395,1.5395,1.5385,1.5385, 9167
02/12/2020,12:05,1.54,1.54,1.5395,1.5395, 29483
02/12/2020,12:06,1.54,1.54,1.5395,1.5395, 15787
02/12/2020,12:07,1.5395,1.54,1.5395,1.54, 4190
02/12/2020,12:08,1.5395,1.54,1.5395,1.5395, 17974
02/12/2020,12:11,1.539,1.539,1.539,1.539, 1000
02/12/2020,12:12,1.5385,1.5385,1.538,1.538, 2764
02/12/2020,12:13,1.5375,1.5375,1.5375,1.5375, 3379
02/12/2020,12:14,1.537,1.537,1.537,1.537, 761
02/12/2020,12:15,1.538,1.5385,1.5375,1.5385, 7637
02/12/2020,12:16,1.5385,1.5385,1.5375,1.5385, 7714
02/12/2020,12:18,1.5385,1.5385,1.5385,1.5385, 7442
02/12/2020,12:21,1.5385,1.5405,1.5385,1.54, 34128
02/12/2020,12:22,1.5395,1.5395,1.5395,1.5395, 2836
02/12/2020,12:23,1.539,1.539,1.539,1.539, 1070
02/12/2020,12:24,1.5395,1.54,1.539,1.539, 4144
02/12/2020,12:25,1.5385,1.5385,1.5385,1.5385, 1063
02/12/2020,12:26,1.5385,1.54,1.5385,1.54, 10169
02/12/2020,12:27,1.54,1.54,1.5395,1.54, 31301
02/12/2020,12:28,1.5395,1.5395,1.5395,1.5395, 7258
02/12/2020,12:29,1.54,1.54,1.5395,1.5395, 7383
02/12/2020,12:31,1.539,1.539,1.5385,1.5385, 1549
02/12/2020,12:32,1.538,1.538,1.538,1.538, 1135
02/12/2020,12:35,1.538,1.538,1.538,1.538, 3000
02/12/2020,12:36,1.539,1.539,1.539,1.539, 6
02/12/2020,12:37,1.538,1.538,1.5375,1.5375, 6162
02/12/2020,12:39,1.5375,1.5375,1.5375,1.5375, 2750
02/12/2020,12:40,1.537,1.537,1.537,1.537, 4036
02/12/2020,12:46,1.5365,1.5365,1.5365,1.5365, 1129
02/12/2020,12:47,1.5365,1.5365,1.5365,1.5365, 1186
02/12/2020,12:51,1.5365,1.537,1.536,1.537, 6605
02/12/2020,12:52,1.536,1.5365,1.536,1.5365, 6863
02/12/2020,12:54,1.536,1.5365,1.5355,1.5355, 9705
02/12/2020,12:57,1.5345,1.5355,1.5345,1.535, 7646
02/12/2020,12:58,1.5345,1.5345,1.5345,1.5345, 4275
02/12/2020,12:59,1.5355,1.5355,1.5355,1.5355, 3991
02/12/2020,13:00,1.5345,1.5345,1.534,1.5345, 1383
02/12/2020,13:03,1.5365,1.5365,1.5365,1.5365, 3365
02/12/2020,13:05,1.537,1.537,1.537,1.537, 5805
02/12/2020,13:06,1.537,1.537,1.537,1.537, 892
02/12/2020,13:08,1.536,1.536,1.536,1.536, 1326
02/12/2020,13:12,1.5365,1.537,1.536,1.536, 3051
02/12/2020,13:22,1.5365,1.5365,1.5365,1.5365, 246
02/12/2020,13:24,1.5375,1.5385,1.5375,1.5385, 3355
02/12/2020,13:26,1.5395,1.5405,1.539,1.54, 5601
02/12/2020,13:29,1.5395,1.5395,1.5395,1.5395, 2359
02/12/2020,13:31,1.5395,1.5395,1.539,1.539, 4806
02/12/2020,13:33,1.5385,1.5385,1.5385,1.5385, 1783
02/12/2020,13:35,1.538,1.538,1.538,1.538, 782
02/12/2020,13:39,1.538,1.538,1.5375,1.538, 1267
02/12/2020,13:41,1.5375,1.5375,1.537,1.537, 1524
02/12/2020,13:42,1.5355,1.5355,1.5355,1.5355, 420
02/12/2020,13:44,1.535,1.535,1.535,1.535, 957
02/12/2020,13:48,1.5345,1.5345,1.5345,1.5345, 768
02/12/2020,13:49,1.535,1.535,1.535,1.535, 374
02/12/2020,13:50,1.5355,1.5355,1.5355,1.5355, 2027
02/12/2020,13:51,1.5375,1.5375,1.5375,1.5375, 3469
02/12/2020,13:52,1.538,1.5385,1.538,1.5385, 1695
02/12/2020,13:53,1.539,1.539,1.5385,1.539, 1366
02/12/2020,13:54,1.5395,1.5395,1.5395,1.5395, 1453
02/12/2020,13:56,1.5387,1.5387,1.5387,1.5387, 3000
02/12/2020,13:59,1.5385,1.5385,1.5385,1.5385, 1192
02/12/2020,14:01,1.5385,1.5395,1.538,1.539, 2984
02/12/2020,14:09,1.54,1.5405,1.5395,1.5395, 6531
02/12/2020,14:10,1.5395,1.5395,1.5395,1.5395, 6183
02/12/2020,14:12,1.539,1.539,1.539,1.539, 1581
02/12/2020,14:14,1.5395,1.5405,1.5395,1.5405, 7129
02/12/2020,14:16,1.541,1.541,1.541,1.541, 3337
02/12/2020,14:18,1.541,1.542,1.541,1.542, 4161
02/12/2020,14:19,1.543,1.543,1.543,1.543, 28
02/12/2020,14:21,1.5425,1.5425,1.5425,1.5425, 4609
02/12/2020,14:23,1.5435,1.5435,1.5435,1.5435, 2003
02/12/2020,14:24,1.5445,1.5445,1.5445,1.5445, 1600
02/12/2020,14:28,1.545,1.545,1.545,1.545, 2580
02/12/2020,14:29,1.545,1.545,1.545,1.545, 1242
02/12/2020,14:30,1.545,1.545,1.545,1.545, 558
02/12/2020,14:33,1.545,1.545,1.5445,1.5445, 4207
02/12/2020,14:35,1.5445,1.5465,1.5445,1.5465, 5817
02/12/2020,14:47,1.548,1.5485,1.548,1.5485, 4519
02/12/2020,14:52,1.5475,1.5475,1.5475,1.5475, 2458
02/12/2020,14:53,1.5485,1.549,1.5485,1.549, 5598
02/12/2020,14:55,1.55,1.55,1.5495,1.5495, 833
02/12/2020,14:56,1.5495,1.5495,1.5495,1.5495, 1528
02/12/2020,15:02,1.5495,1.5505,1.5495,1.5505, 2282
02/12/2020,15:04,1.551,1.552,1.551,1.552, 8178
02/12/2020,15:05,1.5535,1.5535,1.552,1.552, 10890
02/12/2020,15:06,1.5525,1.5525,1.5525,1.5525, 4000
02/12/2020,15:07,1.5525,1.553,1.5525,1.553, 8734
02/12/2020,15:08,1.5525,1.5525,1.5525,1.5525, 3137
02/12/2020,15:09,1.5525,1.5525,1.5525,1.5525, 810
02/12/2020,15:10,1.552,1.552,1.5515,1.5515, 505
02/12/2020,15:15,1.5525,1.5535,1.5525,1.5535, 10079
02/12/2020,15:16,1.5545,1.5545,1.5545,1.5545, 3095
02/12/2020,15:17,1.555,1.5555,1.555,1.5555, 2288
02/12/2020,15:20,1.557,1.557,1.557,1.557, 2000
02/12/2020,15:22,1.556,1.5565,1.556,1.5565, 3290
02/12/2020,15:24,1.5555,1.5555,1.555,1.555, 6879
02/12/2020,15:26,1.555,1.556,1.555,1.5555, 26884
02/12/2020,15:33,1.5562,1.5562,1.5562,1.5562, 3649
02/12/2020,15:34,1.5575,1.5575,1.557,1.5575, 7768
02/12/2020,15:35,1.558,1.5585,1.558,1.5585, 4408
02/12/2020,15:39,1.5585,1.5585,1.5565,1.5565, 11893
02/12/2020,15:40,1.556,1.556,1.5555,1.5555, 15847
02/12/2020,15:41,1.5555,1.5555,1.5555,1.5555, 1864
02/12/2020,15:42,1.5555,1.5555,1.555,1.5555, 11575
02/12/2020,15:43,1.556,1.556,1.5555,1.5555, 1723
02/12/2020,15:44,1.556,1.556,1.556,1.556, 829
02/12/2020,15:45,1.5565,1.5565,1.5565,1.5565, 369
02/12/2020,15:46,1.556,1.556,1.5555,1.5555, 4827
02/12/2020,15:47,1.5555,1.556,1.555,1.556, 40388
02/12/2020,15:48,1.5555,1.556,1.555,1.555, 13351
02/12/2020,15:49,1.5555,1.5555,1.555,1.555, 6929
02/12/2020,15:50,1.555,1.5553,1.555,1.555, 15637
02/12/2020,15:53,1.555,1.555,1.555,1.555, 6735
02/12/2020,15:54,1.555,1.555,1.555,1.555, 19682
02/12/2020,15:57,1.555,1.555,1.5535,1.5535, 53888
02/12/2020,15:58,1.553,1.553,1.552,1.552, 5039
02/12/2020,15:59,1.5515,1.5515,1.551,1.551, 3156
02/12/2020,16:00,1.5515,1.552,1.5515,1.5515, 12025
02/12/2020,16:01,1.5513,1.5525,1.5513,1.552, 12333
02/12/2020,16:02,1.5535,1.5535,1.5535,1.5535, 4781
02/12/2020,16:03,1.554,1.556,1.554,1.556, 45827
02/12/2020,16:04,1.5555,1.5555,1.555,1.555, 6773
02/12/2020,16:05,1.5555,1.5555,1.5555,1.5555, 2972
02/12/2020,16:06,1.5555,1.5555,1.5555,1.5555, 2062
02/12/2020,16:07,1.5555,1.5555,1.5555,1.5555, 11194
02/12/2020,16:08,1.556,1.556,1.556,1.556, 3097
02/12/2020,16:09,1.556,1.556,1.5555,1.556, 2416
02/12/2020,16:10,1.556,1.556,1.556,1.556, 855
02/12/2020,16:11,1.5555,1.5555,1.5555,1.5555, 1105
02/12/2020,16:14,1.556,1.556,1.556,1.556, 49
02/12/2020,16:17,1.556,1.556,1.556,1.556, 708
02/12/2020,16:18,1.5565,1.5565,1.5565,1.5565, 6979
02/12/2020,16:19,1.5555,1.5555,1.5545,1.5545, 11556
02/12/2020,16:20,1.554,1.5555,1.5535,1.5555, 41754
02/12/2020,16:23,1.555,1.555,1.555,1.555, 9164
02/12/2020,16:25,1.5555,1.556,1.5555,1.556, 3746
02/12/2020,16:26,1.5555,1.5555,1.555,1.5555, 8949
02/12/2020,16:27,1.5555,1.5555,1.555,1.555, 15509
02/12/2020,16:28,1.5552,1.5553,1.553,1.555, 44053
02/12/2020,16:29,1.555,1.555,1.5545,1.555, 19561
02/12/2020,16:30,1.5545,1.555,1.554,1.5545, 36211
02/12/2020,16:31,1.5545,1.5545,1.554,1.5545, 4959
02/12/2020,16:32,1.5545,1.5545,1.554,1.554, 5693
02/12/2020,16:33,1.5545,1.5545,1.554,1.554, 3051
02/12/2020,16:34,1.5535,1.5535,1.5525,1.553, 4059
02/12/2020,16:35,1.553,1.5535,1.5525,1.5535, 11595
02/12/2020,16:37,1.5535,1.5535,1.553,1.553, 4713
02/12/2020,16:40,1.552,1.552,1.552,1.552, 2484
02/12/2020,16:41,1.5525,1.5525,1.5525,1.5525, 8986
02/12/2020,16:42,1.553,1.554,1.553,1.554, 2915
02/12/2020,16:44,1.5545,1.5555,1.5535,1.554, 73023
02/12/2020,16:45,1.5545,1.5545,1.5545,1.5545, 7
02/12/2020,16:46,1.5535,1.5535,1.553,1.5535, 7335
02/12/2020,16:47,1.5535,1.5535,1.5535,1.5535, 1214
02/12/2020,16:48,1.5535,1.5535,1.5535,1.5535, 1490
02/12/2020,16:49,1.5535,1.5535,1.5525,1.5525, 2170
02/12/2020,16:50,1.5525,1.5525,1.5525,1.5525, 716
02/12/2020,16:53,1.552,1.552,1.552,1.552, 4576
02/12/2020,16:55,1.553,1.556,1.5525,1.5555, 37512
02/12/2020,16:56,1.5555,1.5555,1.555,1.555, 70135
02/12/2020,16:57,1.555,1.555,1.555,1.555, 6761
02/12/2020,16:58,1.555,1.555,1.554,1.555, 10686
02/12/2020,16:59,1.553,1.553,1.553,1.553, 322
02/12/2020,17:01,1.554,1.555,1.5535,1.555, 10546
02/12/2020,17:02,1.5555,1.5565,1.5555,1.5565, 2516
02/12/2020,17:03,1.557,1.557,1.556,1.556, 4759
02/12/2020,17:06,1.5565,1.5565,1.556,1.5565, 9411
02/12/2020,17:07,1.557,1.558,1.557,1.558, 20000
02/12/2020,17:09,1.5565,1.5565,1.5565,1.5565, 3368
02/12/2020,17:10,1.5565,1.5565,1.5565,1.5565, 928
02/12/2020,17:11,1.557,1.5573,1.557,1.557, 10502
02/12/2020,17:13,1.5575,1.5575,1.557,1.557, 7921
02/12/2020,17:15,1.557,1.557,1.557,1.557, 2230
02/12/2020,17:16,1.5565,1.5565,1.556,1.556, 8507
02/12/2020,17:17,1.5559,1.5559,1.5558,1.5558, 3926
02/12/2020,17:18,1.5555,1.556,1.5555,1.556, 2789
02/12/2020,17:19,1.5555,1.556,1.5555,1.556, 12304
02/12/2020,17:20,1.556,1.556,1.556,1.556, 1377
02/12/2020,17:21,1.5565,1.5565,1.5565,1.5565, 4729
02/12/2020,17:22,1.556,1.5565,1.5555,1.556, 23686
02/12/2020,17:23,1.5555,1.5555,1.5555,1.5555, 1344
02/12/2020,17:24,1.5555,1.556,1.5555,1.5555, 9827
02/12/2020,17:25,1.556,1.556,1.5555,1.556, 2109
02/12/2020,17:26,1.5555,1.5555,1.5555,1.5555, 1454
02/12/2020,17:27,1.5555,1.556,1.555,1.555, 15730
02/12/2020,17:28,1.555,1.5555,1.555,1.5555, 2557
02/12/2020,17:29,1.5555,1.5555,1.5545,1.5545, 2249
02/12/2020,17:30,1.5545,1.555,1.553,1.553, 6336
02/12/2020,17:36,1.556,1.556,1.556,1.556, 490097
02/13/2020,09:01,1.545,1.545,1.545,1.545, 2741
02/13/2020,09:02,1.546,1.5465,1.546,1.5465, 284
02/13/2020,09:03,1.5505,1.5515,1.5505,1.5515, 2110
02/13/2020,09:04,1.5445,1.5445,1.5445,1.5445, 803
02/13/2020,09:06,1.5453,1.5453,1.5453,1.5453, 25
02/13/2020,09:07,1.543,1.543,1.543,1.543, 780
02/13/2020,09:08,1.543,1.543,1.543,1.543, 1295
02/13/2020,09:11,1.544,1.5455,1.544,1.5455, 1395
02/13/2020,09:12,1.545,1.545,1.545,1.545, 2413
02/13/2020,09:16,1.546,1.546,1.546,1.546, 2262
02/13/2020,09:16,1.5445,1.5445,1.5445,1.5445, 524
02/13/2020,09:22,1.542,1.542,1.5405,1.5405, 7507
02/13/2020,09:23,1.54,1.54,1.54,1.54, 1933
02/13/2020,09:28,1.5385,1.5385,1.535,1.535, 3631
02/13/2020,09:29,1.5355,1.5368,1.5355,1.5368, 4240
02/13/2020,09:30,1.538,1.539,1.536,1.539, 9392
02/13/2020,09:31,1.5395,1.5405,1.5395,1.5405, 2031
02/13/2020,09:32,1.5425,1.5445,1.5415,1.5445, 13188
02/13/2020,09:34,1.5435,1.545,1.5435,1.545, 4867
02/13/2020,09:35,1.545,1.545,1.5435,1.5435, 6997
02/13/2020,09:37,1.5425,1.5425,1.541,1.541, 4530
02/13/2020,09:40,1.5385,1.5385,1.5385,1.5385, 2843
02/13/2020,09:41,1.538,1.5385,1.538,1.5385, 1042
02/13/2020,09:42,1.5385,1.5395,1.5385,1.5395, 4615
02/13/2020,09:43,1.5395,1.5395,1.537,1.537, 4485
02/13/2020,09:44,1.537,1.537,1.537,1.537, 987
02/13/2020,09:48,1.5378,1.5378,1.5378,1.5378, 194
02/13/2020,09:49,1.5375,1.5375,1.5375,1.5375, 233
02/13/2020,09:50,1.537,1.537,1.537,1.537, 173
02/13/2020,09:52,1.5365,1.5365,1.535,1.535, 4780
02/13/2020,09:56,1.5345,1.5345,1.5345,1.5345, 757
02/13/2020,10:00,1.5345,1.5345,1.5345,1.5345, 852
02/13/2020,10:01,1.534,1.534,1.532,1.533, 9559
02/13/2020,10:02,1.5345,1.5345,1.5345,1.5345, 1828
02/13/2020,10:03,1.5355,1.5365,1.5355,1.5365, 907
02/13/2020,10:04,1.536,1.5365,1.5355,1.5365, 6273
02/13/2020,10:05,1.536,1.536,1.534,1.5355, 72659
02/13/2020,10:06,1.5365,1.5365,1.5345,1.535, 11009
02/13/2020,10:07,1.5345,1.5345,1.534,1.534, 25242
02/13/2020,10:08,1.5345,1.5345,1.534,1.534, 10236
02/13/2020,10:10,1.534,1.534,1.533,1.533, 11120
02/13/2020,10:13,1.5315,1.532,1.531,1.532, 4704
02/13/2020,10:14,1.533,1.533,1.5325,1.5325, 3368
02/13/2020,10:15,1.534,1.534,1.5325,1.5335, 6453
02/13/2020,10:20,1.5315,1.5315,1.529,1.529, 27962
02/13/2020,10:21,1.5295,1.5295,1.529,1.5295, 9591
02/13/2020,10:22,1.5285,1.5285,1.5285,1.5285, 933
02/13/2020,10:23,1.528,1.528,1.5245,1.5245, 6682
02/13/2020,10:26,1.524,1.524,1.523,1.523, 3376
02/13/2020,10:31,1.5235,1.5245,1.5225,1.5235, 25688
02/13/2020,10:32,1.525,1.525,1.524,1.5245, 4507
02/13/2020,10:33,1.5235,1.524,1.521,1.5215, 15770
02/13/2020,10:34,1.522,1.522,1.5205,1.521, 8365
02/13/2020,10:34,1.521,1.521,1.521,1.521, 1453
02/13/2020,10:36,1.5195,1.5195,1.5195,1.5195, 905
02/13/2020,10:37,1.5205,1.5205,1.52,1.52, 4174
02/13/2020,10:38,1.519,1.519,1.519,1.519, 1722
02/13/2020,10:40,1.519,1.519,1.519,1.519, 1377
02/13/2020,10:41,1.519,1.519,1.5175,1.5175, 3662
02/13/2020,10:42,1.518,1.518,1.5175,1.5175, 1502
02/13/2020,10:44,1.5165,1.517,1.516,1.516, 10952
02/13/2020,10:46,1.516,1.516,1.5155,1.5155, 1951
02/13/2020,10:47,1.515,1.515,1.514,1.514, 6604
02/13/2020,10:47,1.5145,1.5145,1.5145,1.5145, 9142
02/13/2020,10:49,1.515,1.516,1.5145,1.5145, 11191
02/13/2020,10:50,1.514,1.5145,1.514,1.514, 3368
02/13/2020,10:51,1.514,1.514,1.513,1.513, 1534
02/13/2020,10:53,1.5135,1.5135,1.512,1.512, 3876
02/13/2020,10:54,1.5125,1.5125,1.5125,1.5125, 2000
02/13/2020,10:55,1.5135,1.5135,1.5135,1.5135, 1196
02/13/2020,10:58,1.513,1.513,1.513,1.513, 6243
02/13/2020,10:59,1.5135,1.5135,1.512,1.512, 7232
02/13/2020,11:01,1.512,1.512,1.51,1.511, 10129
02/13/2020,11:02,1.5105,1.5105,1.5105,1.5105, 166
02/13/2020,11:03,1.5095,1.51,1.5095,1.51, 4511
02/13/2020,11:05,1.511,1.511,1.5095,1.5095, 7119
02/13/2020,11:06,1.509,1.509,1.5085,1.5085, 5133
02/13/2020,11:07,1.5075,1.5075,1.5075,1.5075, 1426
02/13/2020,11:09,1.5075,1.5075,1.5075,1.5075, 59
02/13/2020,11:10,1.507,1.507,1.5065,1.5065, 5829
02/13/2020,11:11,1.5065,1.5065,1.506,1.506, 9946
02/13/2020,11:12,1.5045,1.505,1.503,1.503, 16578
02/13/2020,11:13,1.5035,1.5055,1.5035,1.5055, 10125
02/13/2020,11:15,1.505,1.5055,1.5015,1.5015, 15711
02/13/2020,11:16,1.5085,1.5085,1.5085,1.5085, 2020
02/13/2020,11:17,1.5045,1.5045,1.5035,1.504, 15165
02/13/2020,11:19,1.508,1.508,1.5065,1.507, 8941
02/13/2020,11:21,1.5085,1.5085,1.5085,1.5085, 4668
02/13/2020,11:23,1.509,1.5095,1.509,1.5095, 5287
02/13/2020,11:24,1.512,1.512,1.511,1.511, 4489
02/13/2020,11:25,1.513,1.5135,1.513,1.5135, 1201
02/13/2020,11:26,1.514,1.514,1.514,1.514, 1738
02/13/2020,11:29,1.5145,1.5145,1.514,1.514, 3130
02/13/2020,11:30,1.5135,1.515,1.513,1.515, 6467
02/13/2020,11:31,1.5135,1.5135,1.5115,1.5115, 1807
02/13/2020,11:32,1.5113,1.512,1.5113,1.512, 5087
02/13/2020,11:35,1.513,1.513,1.513,1.513, 3745
02/13/2020,11:38,1.511,1.511,1.51,1.51, 5016
02/13/2020,11:48,1.508,1.508,1.508,1.508, 9452
02/13/2020,11:50,1.508,1.5095,1.508,1.5095, 9277
02/13/2020,11:55,1.5105,1.513,1.5105,1.5115, 51731
02/13/2020,11:56,1.514,1.514,1.5115,1.5115, 26549
02/13/2020,11:57,1.5125,1.5125,1.5115,1.5115, 19288
02/13/2020,11:59,1.5115,1.5125,1.5115,1.512, 22385
02/13/2020,12:01,1.5115,1.5115,1.5075,1.5075, 28824
02/13/2020,12:02,1.5085,1.509,1.5065,1.5065, 7777
02/13/2020,12:03,1.507,1.507,1.507,1.507, 2052
02/13/2020,12:04,1.5065,1.5065,1.5065,1.5065, 3139
02/13/2020,12:05,1.5075,1.508,1.5075,1.5075, 9788
02/13/2020,12:10,1.5085,1.5085,1.507,1.507, 7342
02/13/2020,12:10,1.5065,1.5065,1.5065,1.5065, 8032
02/13/2020,12:13,1.5065,1.5065,1.506,1.506, 1556
02/13/2020,12:14,1.5055,1.506,1.5055,1.5055, 3106
02/13/2020,12:16,1.5055,1.506,1.5055,1.506, 4600
02/13/2020,12:18,1.5055,1.5055,1.5055,1.5055, 2914
02/13/2020,12:21,1.5055,1.5055,1.505,1.505, 7128
02/13/2020,12:22,1.506,1.506,1.5035,1.5035, 41019
02/13/2020,12:23,1.503,1.5043,1.5025,1.5043, 6570
02/13/2020,12:25,1.5055,1.5065,1.5055,1.5065, 9437
02/13/2020,12:26,1.5065,1.5065,1.5055,1.5055, 2196
02/13/2020,12:26,1.5055,1.5055,1.5055,1.5055, 2000
02/13/2020,12:29,1.505,1.505,1.505,1.505, 414
02/13/2020,12:30,1.5045,1.5045,1.502,1.502, 15477
02/13/2020,12:31,1.5015,1.5015,1.5015,1.5015, 1780
02/13/2020,12:32,1.5015,1.502,1.5,1.5017, 43172
02/13/2020,12:36,1.5025,1.5025,1.501,1.5015, 7071
02/13/2020,12:37,1.5005,1.5015,1.5005,1.5015, 4210
02/13/2020,12:38,1.5025,1.5025,1.5025,1.5025, 572
02/13/2020,12:39,1.5025,1.5025,1.5005,1.5005, 7024
02/13/2020,12:42,1.501,1.501,1.5005,1.5005, 2397
02/13/2020,12:43,1.5015,1.502,1.5015,1.502, 2944
02/13/2020,12:44,1.5025,1.5035,1.5025,1.5035, 3444
02/13/2020,12:45,1.5035,1.5035,1.5033,1.5033, 3386
02/13/2020,12:48,1.5035,1.504,1.5035,1.5035, 6001
02/13/2020,12:49,1.5045,1.505,1.504,1.504, 4316
02/13/2020,12:50,1.5055,1.5055,1.505,1.505, 1419
02/13/2020,12:51,1.505,1.505,1.505,1.505, 1455
02/13/2020,12:51,1.5055,1.5055,1.5055,1.5055, 1500
02/13/2020,12:53,1.5075,1.5075,1.5075,1.5075, 2000
02/13/2020,12:54,1.508,1.508,1.508,1.508, 1533
02/13/2020,12:56,1.5085,1.509,1.5085,1.509, 2862
02/13/2020,12:58,1.5085,1.5095,1.508,1.5095, 6915
02/13/2020,12:59,1.51,1.512,1.51,1.5105, 26255
02/13/2020,13:00,1.51,1.51,1.5095,1.5095, 3007
02/13/2020,13:03,1.5075,1.5075,1.5075,1.5075, 1672
02/13/2020,13:10,1.509,1.5153,1.509,1.509, 7534
02/13/2020,13:12,1.5075,1.5082,1.5065,1.5065, 5676
02/13/2020,13:14,1.5075,1.5075,1.5065,1.5065, 4215
02/13/2020,13:16,1.5075,1.5075,1.5075,1.5075, 1835
02/13/2020,13:17,1.506,1.506,1.505,1.505, 3536
02/13/2020,13:19,1.504,1.5045,1.504,1.504, 3680
02/13/2020,13:20,1.5035,1.5035,1.5025,1.5025, 2226
02/13/2020,13:22,1.503,1.503,1.503,1.503, 4481
02/13/2020,13:25,1.502,1.502,1.502,1.502, 8071
02/13/2020,13:26,1.502,1.5025,1.5005,1.5005, 17727
02/13/2020,13:27,1.4995,1.4995,1.4995,1.4995, 2206
02/13/2020,13:28,1.499,1.499,1.4987,1.4987, 3945
02/13/2020,13:29,1.4995,1.501,1.4995,1.501, 8879
02/13/2020,13:31,1.5015,1.5065,1.5015,1.5015, 5051
02/13/2020,13:35,1.503,1.504,1.503,1.504, 5073
02/13/2020,13:40,1.505,1.5065,1.505,1.5065, 7482
02/13/2020,13:43,1.506,1.506,1.506,1.506, 1727
02/13/2020,13:48,1.506,1.5075,1.506,1.5075, 6540
02/13/2020,13:49,1.5085,1.5115,1.5085,1.511, 38401
02/13/2020,13:50,1.51,1.51,1.5095,1.51, 19099
02/13/2020,13:51,1.51,1.51,1.5095,1.5095, 11391
02/13/2020,13:52,1.5095,1.5095,1.509,1.509, 12215
02/13/2020,13:53,1.5095,1.51,1.509,1.509, 14833
02/13/2020,13:54,1.5085,1.5085,1.507,1.507, 6943
02/13/2020,13:55,1.5075,1.5075,1.5075,1.5075, 2000
02/13/2020,13:58,1.508,1.511,1.508,1.511, 11326
02/13/2020,14:02,1.511,1.511,1.511,1.511, 3660
02/13/2020,14:03,1.5115,1.5115,1.5115,1.5115, 1584
02/13/2020,14:05,1.513,1.515,1.5128,1.515, 5047
02/13/2020,14:06,1.5155,1.5165,1.5155,1.5165, 3124
02/13/2020,14:07,1.5165,1.5165,1.5155,1.5165, 3852
02/13/2020,14:08,1.5145,1.5145,1.5145,1.5145, 567
02/13/2020,14:09,1.5135,1.5135,1.5135,1.5135, 2072
02/13/2020,14:11,1.5135,1.5135,1.5135,1.5135, 664
02/13/2020,14:12,1.5115,1.5115,1.5115,1.5115, 171
02/13/2020,14:15,1.512,1.512,1.512,1.512, 2913
02/13/2020,14:18,1.5125,1.513,1.5125,1.513, 3142
02/13/2020,14:19,1.5125,1.5125,1.5125,1.5125, 1460
02/13/2020,14:22,1.5125,1.5125,1.5125,1.5125, 1246
02/13/2020,14:27,1.5105,1.512,1.51,1.51, 6705
02/13/2020,14:31,1.5115,1.5115,1.5115,1.5115, 966
02/13/2020,14:34,1.5125,1.5125,1.5115,1.512, 5026
02/13/2020,14:35,1.511,1.512,1.511,1.511, 4267
02/13/2020,14:36,1.5105,1.5105,1.51,1.51, 13028
02/13/2020,14:37,1.51,1.5125,1.51,1.5115, 10564
02/13/2020,14:39,1.511,1.511,1.5105,1.5105, 3108
02/13/2020,14:39,1.5105,1.5105,1.51,1.5105, 2274
02/13/2020,14:44,1.51,1.51,1.509,1.5095, 4095
02/13/2020,14:45,1.51,1.5105,1.51,1.5105, 4191
02/13/2020,14:47,1.509,1.5095,1.509,1.509, 4389
02/13/2020,14:49,1.508,1.508,1.508,1.508, 756
02/13/2020,14:50,1.508,1.508,1.508,1.508, 848
02/13/2020,14:51,1.509,1.509,1.509,1.509, 1835
02/13/2020,14:55,1.509,1.509,1.509,1.509, 694
02/13/2020,14:56,1.509,1.509,1.508,1.5085, 6874
02/13/2020,14:57,1.509,1.509,1.509,1.509, 1154
02/13/2020,14:58,1.5085,1.5085,1.5085,1.5085, 1686
02/13/2020,15:02,1.508,1.508,1.506,1.506, 19195
02/13/2020,15:04,1.507,1.507,1.507,1.507, 2491
02/13/2020,15:05,1.507,1.5075,1.507,1.5075, 1975
02/13/2020,15:06,1.508,1.508,1.508,1.508, 391
02/13/2020,15:08,1.5065,1.5065,1.5065,1.5065, 2777
02/13/2020,15:09,1.5075,1.5075,1.507,1.507, 2142
02/13/2020,15:11,1.508,1.51,1.508,1.51, 14464
02/13/2020,15:12,1.51,1.511,1.51,1.5105, 11993
02/13/2020,15:13,1.5105,1.5105,1.51,1.51, 2725
02/13/2020,15:15,1.5095,1.5095,1.5095,1.5095, 2472
02/13/2020,15:17,1.509,1.5095,1.509,1.509, 2046
02/13/2020,15:19,1.508,1.508,1.508,1.508, 619
02/13/2020,15:21,1.5085,1.5085,1.5085,1.5085, 3554
02/13/2020,15:21,1.5075,1.5075,1.5075,1.5075, 2811
02/13/2020,15:26,1.5085,1.5085,1.5085,1.5085, 3544
02/13/2020,15:27,1.5085,1.5085,1.508,1.5085, 4339
02/13/2020,15:28,1.5075,1.5075,1.5065,1.5065, 4327
02/13/2020,15:29,1.5065,1.5075,1.5065,1.5075, 11590
02/13/2020,15:32,1.5085,1.5095,1.5085,1.509, 1783
02/13/2020,15:33,1.511,1.511,1.5105,1.5105, 5214
02/13/2020,15:33,1.511,1.511,1.511,1.511, 2755
02/13/2020,15:38,1.5115,1.5125,1.5115,1.5125, 1950
02/13/2020,15:39,1.5135,1.5135,1.513,1.513, 8722
02/13/2020,15:40,1.5125,1.5125,1.512,1.512, 3694
02/13/2020,15:42,1.5115,1.512,1.5105,1.512, 15886
02/13/2020,15:45,1.512,1.512,1.5115,1.5115, 7830
02/13/2020,15:47,1.5125,1.515,1.5125,1.515, 4811
02/13/2020,15:48,1.516,1.516,1.516,1.516, 16584
02/13/2020,15:50,1.516,1.516,1.513,1.513, 19313
02/13/2020,15:51,1.5135,1.514,1.513,1.514, 16374
02/13/2020,15:54,1.515,1.515,1.515,1.515, 2091
02/13/2020,15:55,1.516,1.516,1.516,1.516, 1670
02/13/2020,15:56,1.5155,1.517,1.5155,1.517, 8105
02/13/2020,15:59,1.517,1.5175,1.5155,1.5155, 38739
02/13/2020,16:00,1.515,1.5155,1.514,1.514, 5766
02/13/2020,16:01,1.5135,1.5135,1.512,1.5125, 7112
02/13/2020,16:02,1.511,1.511,1.511,1.511, 4875
02/13/2020,16:03,1.51,1.5105,1.51,1.5105, 592
02/13/2020,16:04,1.51,1.51,1.5095,1.5095, 4516
02/13/2020,16:05,1.5095,1.5095,1.5095,1.5095, 694
02/13/2020,16:06,1.5095,1.5095,1.5095,1.5095, 543
02/13/2020,16:07,1.51,1.5105,1.51,1.5105, 5282
02/13/2020,16:08,1.5115,1.5115,1.5115,1.5115, 2301
02/13/2020,16:09,1.5117,1.5117,1.5117,1.5117, 6
02/13/2020,16:10,1.5125,1.5125,1.5125,1.5125, 2290
02/13/2020,16:11,1.5115,1.512,1.5115,1.5115, 2476
02/13/2020,16:12,1.5123,1.5123,1.5123,1.5123, 3000
02/13/2020,16:13,1.513,1.5135,1.513,1.5135, 6128
02/13/2020,16:16,1.513,1.513,1.512,1.512, 3832
02/13/2020,16:17,1.512,1.512,1.5105,1.511, 15484
02/13/2020,16:18,1.511,1.512,1.511,1.512, 1687
02/13/2020,16:21,1.5125,1.5125,1.5125,1.5125, 2332
02/13/2020,16:22,1.513,1.513,1.5125,1.5125, 2190
02/13/2020,16:23,1.512,1.512,1.512,1.512, 6574
02/13/2020,16:24,1.512,1.513,1.512,1.513, 5427
02/13/2020,16:25,1.512,1.512,1.512,1.512, 1626
02/13/2020,16:26,1.5115,1.5115,1.5105,1.5105, 4000
02/13/2020,16:27,1.511,1.511,1.5105,1.5105, 6744
02/13/2020,16:29,1.5115,1.5115,1.5105,1.5105, 355
02/13/2020,16:30,1.5105,1.5105,1.5105,1.5105, 1067
02/13/2020,16:34,1.51,1.51,1.51,1.51, 2044
02/13/2020,16:35,1.5095,1.51,1.5085,1.5085, 11255
02/13/2020,16:36,1.5085,1.509,1.5085,1.509, 6362
02/13/2020,16:37,1.5085,1.5085,1.5085,1.5085, 949
02/13/2020,16:39,1.509,1.5095,1.509,1.5095, 6403
02/13/2020,16:42,1.5105,1.5105,1.5105,1.5105, 2364
02/13/2020,16:43,1.5105,1.5105,1.5105,1.5105, 2336
02/13/2020,16:44,1.511,1.511,1.511,1.511, 2310
02/13/2020,16:45,1.5105,1.5105,1.5095,1.5095, 18617
02/13/2020,16:45,1.509,1.509,1.509,1.509, 206
02/13/2020,16:47,1.51,1.51,1.51,1.51, 2184
02/13/2020,16:48,1.5085,1.5085,1.5085,1.5085, 2227
02/13/2020,16:49,1.5075,1.508,1.5075,1.508, 2714
02/13/2020,16:50,1.508,1.508,1.508,1.508, 3027
02/13/2020,16:51,1.5075,1.5075,1.5075,1.5075, 1681
02/13/2020,16:53,1.5075,1.5075,1.5075,1.5075, 2029
02/13/2020,16:54,1.507,1.507,1.507,1.507, 2567
02/13/2020,16:55,1.5075,1.5075,1.5075,1.5075, 3792
02/13/2020,16:56,1.5075,1.5075,1.507,1.5075, 18232
02/13/2020,16:57,1.508,1.5095,1.508,1.5095, 16395
02/13/2020,16:58,1.5095,1.5095,1.509,1.509, 6657
02/13/2020,16:59,1.509,1.509,1.509,1.509, 356
02/13/2020,17:01,1.51,1.51,1.5095,1.5095, 7809
02/13/2020,17:02,1.51,1.51,1.51,1.51, 496
02/13/2020,17:03,1.5105,1.511,1.5105,1.511, 5751
02/13/2020,17:04,1.5105,1.511,1.51,1.5105, 7589
02/13/2020,17:05,1.511,1.511,1.511,1.511, 168
02/13/2020,17:06,1.5105,1.511,1.51,1.511, 11133
02/13/2020,17:07,1.511,1.5115,1.511,1.5115, 2753
02/13/2020,17:08,1.512,1.512,1.512,1.512, 2000
02/13/2020,17:09,1.512,1.5125,1.5115,1.5125, 17761
02/13/2020,17:10,1.5125,1.5125,1.5125,1.5125, 1068
02/13/2020,17:11,1.512,1.512,1.5115,1.5115, 4750
02/13/2020,17:12,1.512,1.512,1.5115,1.5115, 3090
02/13/2020,17:13,1.512,1.513,1.512,1.513, 3004
02/13/2020,17:14,1.512,1.512,1.512,1.512, 3887
02/13/2020,17:15,1.511,1.511,1.511,1.511, 1149
02/13/2020,17:15,1.5105,1.5105,1.5105,1.5105, 1879
02/13/2020,17:17,1.5115,1.5115,1.5115,1.5115, 278
02/13/2020,17:18,1.511,1.5115,1.511,1.5115, 2409
02/13/2020,17:19,1.512,1.512,1.512,1.512, 2199
02/13/2020,17:20,1.512,1.512,1.512,1.512, 609
02/13/2020,17:21,1.5115,1.512,1.5115,1.512, 289
02/13/2020,17:23,1.512,1.512,1.512,1.512, 9894
02/13/2020,17:24,1.512,1.512,1.512,1.512, 3463
02/13/2020,17:25,1.512,1.512,1.5115,1.5115, 2502
02/13/2020,17:26,1.511,1.5115,1.511,1.511, 2404
02/13/2020,17:29,1.5115,1.5115,1.511,1.511, 13501
02/13/2020,17:30,1.5105,1.5105,1.51,1.51, 3348
02/13/2020,17:30,1.5095,1.5105,1.5095,1.5105, 2414
02/13/2020,17:36,1.508,1.508,1.508,1.508, 674836
02/14/2020,09:01,1.5065,1.5065,1.5065,1.5065, 729
02/14/2020,09:02,1.5115,1.5115,1.51,1.51, 3196
02/14/2020,09:03,1.5073,1.5073,1.505,1.506, 6870
02/14/2020,09:04,1.5005,1.503,1.5005,1.503, 2263
02/14/2020,09:06,1.5015,1.5055,1.5015,1.5055, 8391
02/14/2020,09:08,1.5055,1.5055,1.504,1.505, 3057
02/14/2020,09:09,1.504,1.5085,1.504,1.5045, 24122
02/14/2020,09:10,1.508,1.51,1.508,1.51, 2767
02/14/2020,09:11,1.511,1.511,1.509,1.509, 5297
02/14/2020,09:12,1.5105,1.5115,1.508,1.508, 5235
02/14/2020,09:16,1.509,1.509,1.509,1.509, 4052
02/14/2020,09:18,1.508,1.508,1.508,1.508, 3310
02/14/2020,09:19,1.508,1.509,1.508,1.509, 4920
02/14/2020,09:21,1.508,1.5085,1.508,1.508, 1487
02/14/2020,09:22,1.5075,1.5075,1.5075,1.5075, 905
02/14/2020,09:24,1.509,1.5095,1.509,1.5095, 2195
02/14/2020,09:29,1.509,1.509,1.509,1.509, 1034
02/14/2020,09:31,1.511,1.512,1.5105,1.512, 3515
02/14/2020,09:32,1.5125,1.5135,1.5125,1.5133, 4595
02/14/2020,09:34,1.5125,1.5125,1.5125,1.5125, 1663
02/14/2020,09:38,1.513,1.514,1.5125,1.514, 5480
02/14/2020,09:42,1.513,1.513,1.511,1.511, 4626
02/14/2020,09:43,1.511,1.5145,1.511,1.5145, 5609
02/14/2020,09:44,1.515,1.515,1.515,1.515, 328
02/14/2020,09:48,1.5155,1.5155,1.5155,1.5155, 2604
02/14/2020,09:50,1.516,1.516,1.516,1.516, 1614
02/14/2020,09:51,1.5145,1.5145,1.5145,1.5145, 700
02/14/2020,09:55,1.514,1.515,1.514,1.515, 4456
02/14/2020,09:57,1.5145,1.5145,1.5145,1.5145, 1600
02/14/2020,10:00,1.5155,1.5165,1.5145,1.5145, 8231
02/14/2020,10:01,1.5145,1.5145,1.514,1.514, 1115
02/14/2020,10:04,1.514,1.515,1.514,1.515, 3802
02/14/2020,10:07,1.515,1.517,1.515,1.5165, 22842
02/14/2020,10:07,1.516,1.516,1.516,1.516, 1317
02/14/2020,10:09,1.515,1.5155,1.513,1.514, 10542
02/14/2020,10:10,1.5125,1.5125,1.512,1.512, 864
02/14/2020,10:11,1.5115,1.5115,1.51,1.51, 4276
02/14/2020,10:12,1.5115,1.5115,1.5115,1.5115, 414
02/14/2020,10:13,1.5125,1.5135,1.5125,1.5135, 2059
02/14/2020,10:15,1.5145,1.515,1.5145,1.5145, 4709
02/14/2020,10:15,1.514,1.5145,1.514,1.5145, 1870
02/14/2020,10:18,1.515,1.516,1.515,1.516, 6243
02/14/2020,10:19,1.517,1.517,1.5165,1.517, 2407
02/14/2020,10:20,1.5185,1.5185,1.518,1.518, 1703
02/14/2020,10:21,1.5185,1.5185,1.5185,1.5185, 1376
02/14/2020,10:23,1.5185,1.5185,1.5185,1.5185, 524
02/14/2020,10:24,1.518,1.518,1.5175,1.5175, 1824
02/14/2020,10:26,1.5175,1.518,1.5165,1.5165, 8224
02/14/2020,10:27,1.5165,1.5165,1.5165,1.5165, 706
02/14/2020,10:28,1.5175,1.518,1.5165,1.5165, 4560
02/14/2020,10:29,1.517,1.519,1.517,1.519, 5791
02/14/2020,10:32,1.518,1.518,1.5165,1.5165, 6214
02/14/2020,10:33,1.516,1.516,1.516,1.516, 1156
02/14/2020,10:34,1.5155,1.5155,1.5145,1.5145, 800
02/14/2020,10:37,1.514,1.514,1.514,1.514, 205
02/14/2020,10:39,1.514,1.514,1.514,1.514, 108
02/14/2020,10:42,1.5155,1.5155,1.5155,1.5155, 205
02/14/2020,10:43,1.5155,1.5155,1.5155,1.5155, 689
02/14/2020,10:45,1.5155,1.5155,1.5155,1.5155, 820
02/14/2020,10:47,1.5145,1.5145,1.514,1.514, 1429
02/14/2020,10:49,1.5125,1.513,1.512,1.512, 3911
02/14/2020,10:51,1.513,1.513,1.513,1.513, 334
02/14/2020,10:54,1.512,1.512,1.512,1.512, 1361
02/14/2020,10:55,1.5115,1.5115,1.5115,1.5115, 1324
02/14/2020,10:59,1.5125,1.5125,1.5125,1.5125, 1315
02/14/2020,11:00,1.5128,1.5128,1.5115,1.5115, 5199
02/14/2020,11:02,1.5125,1.5125,1.5125,1.5125, 3282
02/14/2020,11:03,1.5115,1.5115,1.5115,1.5115, 748
02/14/2020,11:05,1.511,1.5115,1.511,1.5115, 4957
02/14/2020,11:09,1.5105,1.5105,1.5105,1.5105, 332
02/14/2020,11:10,1.5115,1.5115,1.5115,1.5115, 1669
02/14/2020,11:15,1.5115,1.5115,1.5115,1.5115, 1483
02/14/2020,11:20,1.5105,1.5115,1.5105,1.5115, 1656
02/14/2020,11:21,1.511,1.511,1.511,1.511, 129
02/14/2020,11:23,1.511,1.511,1.511,1.511, 661
02/14/2020,11:24,1.5105,1.5105,1.5105,1.5105, 2710
02/14/2020,11:25,1.5095,1.5095,1.5095,1.5095, 348
02/14/2020,11:26,1.509,1.51,1.509,1.5095, 7137
02/14/2020,11:27,1.5095,1.5095,1.5095,1.5095, 139
02/14/2020,11:28,1.509,1.509,1.509,1.509, 316
02/14/2020,11:30,1.5105,1.5115,1.5105,1.5115, 5676
02/14/2020,11:31,1.5117,1.5117,1.5117,1.5117, 3286
02/14/2020,11:32,1.511,1.511,1.5095,1.5095, 2070
02/14/2020,11:33,1.509,1.509,1.509,1.509, 1672
02/14/2020,11:36,1.51,1.51,1.51,1.51, 2310
02/14/2020,11:38,1.51,1.51,1.51,1.51, 594
02/14/2020,11:41,1.51,1.51,1.51,1.51, 744
02/14/2020,11:43,1.509,1.5095,1.5085,1.5095, 2857
02/14/2020,11:46,1.51,1.5105,1.51,1.5105, 886
02/14/2020,11:49,1.5105,1.5105,1.5105,1.5105, 1027
02/14/2020,11:50,1.51,1.51,1.51,1.51, 2499
02/14/2020,11:51,1.5105,1.5105,1.5105,1.5105, 24
02/14/2020,11:54,1.509,1.509,1.508,1.508, 4148
02/14/2020,11:56,1.509,1.509,1.509,1.509, 8
02/14/2020,11:57,1.5075,1.5075,1.5075,1.5075, 6261
02/14/2020,11:58,1.5075,1.508,1.507,1.508, 2722
02/14/2020,12:01,1.5085,1.5085,1.5085,1.5085, 2969
02/14/2020,12:02,1.5085,1.5085,1.5085,1.5085, 710
02/14/2020,12:02,1.5085,1.5085,1.5085,1.5085, 211
02/14/2020,12:05,1.508,1.508,1.508,1.508, 779
02/14/2020,12:07,1.5075,1.5075,1.5075,1.5075, 52
02/14/2020,12:12,1.507,1.507,1.507,1.507, 1964
02/14/2020,12:16,1.508,1.508,1.508,1.508, 80
02/14/2020,12:17,1.508,1.5085,1.508,1.5085, 7533
02/14/2020,12:21,1.5075,1.5075,1.5075,1.5075, 611
02/14/2020,12:23,1.5085,1.5085,1.5085,1.5085, 1644
02/14/2020,12:24,1.509,1.509,1.509,1.509, 66
02/14/2020,12:25,1.5085,1.5085,1.5085,1.5085, 2369
02/14/2020,12:26,1.508,1.508,1.508,1.508, 114
02/14/2020,12:27,1.509,1.509,1.509,1.509, 1925
02/14/2020,12:29,1.51,1.51,1.51,1.51, 577
02/14/2020,12:31,1.5105,1.5105,1.5105,1.5105, 3992
02/14/2020,12:38,1.51,1.51,1.51,1.51, 529
02/14/2020,12:40,1.51,1.51,1.51,1.51, 1724
02/14/2020,12:42,1.5105,1.5105,1.5105,1.5105, 853
02/14/2020,12:45,1.51,1.51,1.51,1.51, 143
02/14/2020,12:46,1.5105,1.511,1.5105,1.511, 2040
02/14/2020,12:49,1.5105,1.511,1.5105,1.511, 2028
02/14/2020,12:51,1.5105,1.511,1.5105,1.511, 1719
02/14/2020,12:53,1.511,1.5115,1.511,1.5115, 3527
02/14/2020,12:54,1.512,1.5125,1.512,1.5125, 6026
02/14/2020,12:56,1.513,1.513,1.513,1.513, 1591
02/14/2020,12:56,1.5125,1.5125,1.5125,1.5125, 259
02/14/2020,12:58,1.513,1.514,1.513,1.514, 1908
02/14/2020,12:59,1.5145,1.518,1.5145,1.518, 10519
02/14/2020,13:00,1.5185,1.519,1.5185,1.519, 2076
02/14/2020,13:00,1.519,1.519,1.519,1.519, 1094
02/14/2020,13:03,1.52,1.52,1.518,1.518, 5878
02/14/2020,13:07,1.5175,1.5175,1.5175,1.5175, 1700
02/14/2020,13:09,1.5165,1.5165,1.5165,1.5165, 593
02/14/2020,13:10,1.5172,1.5172,1.5172,1.5172, 596
02/14/2020,13:17,1.5185,1.5185,1.517,1.517, 13693
02/14/2020,13:18,1.516,1.516,1.5125,1.5145, 17391
02/14/2020,13:19,1.516,1.517,1.516,1.517, 1462
02/14/2020,13:20,1.516,1.518,1.516,1.516, 4848
02/14/2020,13:23,1.5175,1.5175,1.5175,1.5175, 29
02/14/2020,13:26,1.5165,1.5165,1.5165,1.5165, 196
02/14/2020,13:27,1.5185,1.5185,1.5185,1.5185, 43
02/14/2020,13:34,1.5185,1.5185,1.5185,1.5185, 248
02/14/2020,13:35,1.517,1.517,1.517,1.517, 752
02/14/2020,13:37,1.5185,1.5185,1.5185,1.5185, 1
02/14/2020,13:38,1.5185,1.5185,1.5185,1.5185, 41
02/14/2020,13:49,1.5187,1.5187,1.5187,1.5187, 3000
02/14/2020,13:51,1.5185,1.5185,1.5185,1.5185, 1103
02/14/2020,13:52,1.52,1.5215,1.52,1.5215, 3241
02/14/2020,13:54,1.5225,1.5225,1.5215,1.5215, 2434
