04/01/2020,09:01,1.2335,1.2335,1.2335,1.2335, 7008
04/01/2020,09:03,1.239,1.239,1.239,1.239, 4672
04/01/2020,09:06,1.2445,1.2445,1.2445,1.2445, 3563
04/01/2020,09:08,1.2485,1.2485,1.2375,1.2375, 13334
04/01/2020,09:09,1.239,1.2425,1.239,1.24, 38066
04/01/2020,09:10,1.242,1.242,1.2395,1.242, 9599
04/01/2020,09:11,1.2395,1.2395,1.238,1.239, 11652
04/01/2020,09:12,1.243,1.2525,1.243,1.25, 34913
04/01/2020,09:14,1.26,1.26,1.2595,1.26, 10796
04/01/2020,09:15,1.254,1.254,1.253,1.253, 2714
04/01/2020,09:16,1.2525,1.2525,1.2515,1.2515, 6203
04/01/2020,09:17,1.242,1.242,1.2395,1.2415, 2840
04/01/2020,09:20,1.2445,1.2445,1.241,1.241, 13372
04/01/2020,09:21,1.241,1.2425,1.241,1.241, 17425
04/01/2020,09:21,1.2395,1.2395,1.2395,1.2395, 51
04/01/2020,09:23,1.238,1.238,1.236,1.236, 16478
04/01/2020,09:25,1.2355,1.2355,1.2345,1.2345, 4438
04/01/2020,09:27,1.237,1.237,1.237,1.237, 1112
04/01/2020,09:28,1.236,1.236,1.2345,1.2345, 6954
04/01/2020,09:29,1.2355,1.2365,1.235,1.235, 10253
04/01/2020,09:30,1.2355,1.2355,1.2335,1.235, 14465
04/01/2020,09:31,1.234,1.234,1.234,1.234, 2614
04/01/2020,09:32,1.2315,1.2315,1.2315,1.2315, 1457
04/01/2020,09:32,1.2315,1.2325,1.2315,1.2325, 3123
04/01/2020,09:34,1.2295,1.2295,1.229,1.229, 5608
04/01/2020,09:35,1.2285,1.2285,1.226,1.226, 2097
04/01/2020,09:37,1.2265,1.2331,1.2265,1.2331, 3973
04/01/2020,09:38,1.2336,1.2336,1.2315,1.2335, 20798
04/01/2020,09:39,1.2325,1.233,1.23,1.233, 10703
04/01/2020,09:40,1.232,1.234,1.2306,1.2325, 14236
04/01/2020,09:42,1.2325,1.238,1.2325,1.2355, 6406
04/01/2020,09:42,1.2355,1.2355,1.235,1.235, 3182
04/01/2020,09:44,1.235,1.235,1.2325,1.2325, 1637
04/01/2020,09:46,1.236,1.2385,1.2335,1.2385, 5393
04/01/2020,09:46,1.2375,1.2375,1.2375,1.2375, 155
04/01/2020,09:48,1.2355,1.2365,1.2355,1.2365, 7612
04/01/2020,09:50,1.237,1.237,1.2345,1.2345, 5377
04/01/2020,09:52,1.2415,1.2415,1.2415,1.2415, 3586
04/01/2020,09:54,1.243,1.243,1.2395,1.2405, 6937
04/01/2020,09:56,1.2395,1.2395,1.2375,1.2385, 14313
04/01/2020,10:00,1.2395,1.2395,1.2395,1.2395, 1517
04/01/2020,10:01,1.242,1.2425,1.242,1.2425, 4576
04/01/2020,10:02,1.2435,1.245,1.2435,1.245, 2264
04/01/2020,10:04,1.242,1.242,1.239,1.239, 10322
04/01/2020,10:09,1.243,1.244,1.2415,1.2415, 13567
04/01/2020,10:10,1.2435,1.2435,1.2435,1.2435, 3255
04/01/2020,10:11,1.2435,1.2435,1.239,1.239, 24074
04/01/2020,10:12,1.2425,1.244,1.2425,1.244, 4703
04/01/2020,10:14,1.245,1.245,1.2445,1.2445, 1393
04/01/2020,10:15,1.2455,1.2455,1.2455,1.2455, 793
04/01/2020,10:17,1.2425,1.2425,1.2425,1.2425, 1326
04/01/2020,10:23,1.241,1.241,1.239,1.239, 1387
04/01/2020,10:25,1.239,1.2415,1.239,1.2415, 6733
04/01/2020,10:29,1.239,1.239,1.238,1.238, 4231
04/01/2020,10:29,1.2385,1.239,1.238,1.239, 6219
04/01/2020,10:35,1.2378,1.2378,1.2378,1.2378, 397
04/01/2020,10:35,1.2345,1.236,1.2345,1.2345, 2955
04/01/2020,10:38,1.233,1.233,1.233,1.233, 1499
04/01/2020,10:46,1.2315,1.2315,1.231,1.2315, 4631
04/01/2020,10:46,1.232,1.232,1.232,1.232, 292
04/01/2020,10:50,1.232,1.2335,1.232,1.2335, 6360
04/01/2020,10:50,1.2335,1.2365,1.2335,1.2365, 8568
04/01/2020,10:52,1.2335,1.2335,1.23,1.23, 5300
04/01/2020,10:53,1.229,1.229,1.229,1.229, 1407
04/01/2020,10:57,1.2285,1.2285,1.2285,1.2285, 1071
04/01/2020,10:58,1.225,1.225,1.224,1.224, 2011
04/01/2020,10:58,1.225,1.2255,1.225,1.2255, 3833
04/01/2020,10:59,1.2255,1.2255,1.2255,1.2255, 1277
04/01/2020,11:01,1.226,1.226,1.226,1.226, 4397
04/01/2020,11:03,1.226,1.226,1.226,1.226, 670
04/01/2020,11:05,1.2255,1.2255,1.2255,1.2255, 1240
04/01/2020,11:08,1.2265,1.23,1.2265,1.23, 36429
04/01/2020,11:08,1.2335,1.2335,1.2335,1.2335, 4350
04/01/2020,11:11,1.236,1.236,1.236,1.236, 3174
04/01/2020,11:11,1.2365,1.2365,1.2365,1.2365, 1779
04/01/2020,11:13,1.235,1.235,1.235,1.235, 319
04/01/2020,11:16,1.2325,1.2325,1.2313,1.2313, 16477
04/01/2020,11:16,1.2315,1.2315,1.2315,1.2315, 2569
04/01/2020,11:22,1.2295,1.2295,1.229,1.229, 2422
04/01/2020,11:24,1.231,1.232,1.2305,1.2305, 4189
04/01/2020,11:25,1.233,1.233,1.233,1.233, 317
04/01/2020,11:30,1.2325,1.2325,1.232,1.232, 6043
04/01/2020,11:30,1.233,1.2335,1.233,1.2335, 3294
04/01/2020,11:32,1.2345,1.2345,1.233,1.233, 11722
04/01/2020,11:33,1.232,1.233,1.231,1.231, 4973
04/01/2020,11:35,1.233,1.233,1.233,1.233, 1414
04/01/2020,11:37,1.232,1.232,1.2285,1.2285, 21459
04/01/2020,11:37,1.2285,1.229,1.2285,1.2285, 27000
04/01/2020,11:39,1.231,1.232,1.231,1.232, 7285
04/01/2020,11:42,1.233,1.233,1.2315,1.2315, 2462
04/01/2020,11:46,1.23,1.23,1.23,1.23, 1293
04/01/2020,11:47,1.2305,1.2305,1.2305,1.2305, 4046
04/01/2020,11:49,1.2315,1.2335,1.2315,1.2335, 8310
04/01/2020,11:52,1.2335,1.2345,1.2335,1.2345, 2488
04/01/2020,11:52,1.2355,1.2355,1.2355,1.2355, 1799
04/01/2020,11:54,1.235,1.235,1.2345,1.2345, 2619
04/01/2020,11:54,1.2355,1.2375,1.2355,1.2375, 7206
04/01/2020,11:55,1.238,1.238,1.238,1.238, 1564
04/01/2020,11:56,1.2395,1.2395,1.2395,1.2395, 211
04/01/2020,11:58,1.238,1.238,1.238,1.238, 155
04/01/2020,11:59,1.239,1.239,1.239,1.239, 1
04/01/2020,12:00,1.2375,1.2375,1.2375,1.2375, 3839
04/01/2020,12:05,1.238,1.2385,1.238,1.2385, 1456
04/01/2020,12:06,1.239,1.241,1.239,1.2405, 6042
04/01/2020,12:09,1.24,1.2405,1.24,1.2405, 1762
04/01/2020,12:10,1.2405,1.2405,1.2405,1.2405, 620
04/01/2020,12:12,1.24,1.2405,1.24,1.2405, 163
04/01/2020,12:13,1.2405,1.241,1.2405,1.241, 836
04/01/2020,12:19,1.242,1.242,1.242,1.242, 1652
04/01/2020,12:20,1.241,1.241,1.241,1.241, 2000
04/01/2020,12:22,1.2405,1.241,1.2395,1.2395, 4709
04/01/2020,12:24,1.239,1.239,1.238,1.238, 1505
04/01/2020,12:24,1.239,1.239,1.237,1.238, 22034
04/01/2020,12:26,1.2375,1.238,1.2375,1.238, 3520
04/01/2020,12:29,1.237,1.237,1.237,1.237, 1800
04/01/2020,12:30,1.237,1.237,1.237,1.237, 886
04/01/2020,12:31,1.2375,1.2385,1.2375,1.2385, 5236
04/01/2020,12:32,1.2375,1.2375,1.236,1.236, 8440
04/01/2020,12:33,1.2365,1.237,1.2365,1.2365, 6419
04/01/2020,12:34,1.237,1.237,1.237,1.237, 1232
04/01/2020,12:35,1.2375,1.2375,1.2375,1.2375, 410
04/01/2020,12:37,1.236,1.236,1.236,1.236, 2983
04/01/2020,12:39,1.235,1.235,1.235,1.235, 894
04/01/2020,12:41,1.2353,1.2353,1.2305,1.2305, 4636
04/01/2020,12:42,1.23,1.23,1.229,1.2295, 5989
04/01/2020,12:42,1.231,1.231,1.231,1.231, 4608
04/01/2020,12:46,1.229,1.229,1.229,1.229, 3212
04/01/2020,12:47,1.2275,1.2275,1.227,1.227, 1649
04/01/2020,12:48,1.23,1.23,1.2285,1.2285, 9622
04/01/2020,12:49,1.228,1.228,1.228,1.228, 4745
04/01/2020,12:49,1.2275,1.2275,1.226,1.226, 3473
04/01/2020,12:51,1.2245,1.225,1.2245,1.2245, 7364
04/01/2020,12:52,1.224,1.2265,1.224,1.226, 11372
04/01/2020,12:54,1.224,1.224,1.2225,1.2225, 9837
04/01/2020,12:55,1.223,1.224,1.223,1.224, 11973
04/01/2020,12:56,1.2225,1.2225,1.2225,1.2225, 4108
04/01/2020,12:57,1.222,1.222,1.22,1.22, 9033
04/01/2020,12:57,1.221,1.2225,1.221,1.221, 8532
04/01/2020,12:59,1.221,1.225,1.221,1.225, 9985
04/01/2020,13:00,1.2253,1.2295,1.2253,1.2295, 13347
04/01/2020,13:00,1.23,1.2325,1.23,1.2325, 9335
04/01/2020,13:03,1.2215,1.2215,1.2215,1.2215, 7359
04/01/2020,13:04,1.2278,1.2278,1.2278,1.2278, 828
04/01/2020,13:05,1.2285,1.2285,1.2225,1.2245, 10013
04/01/2020,13:06,1.2255,1.226,1.224,1.224, 8780
04/01/2020,13:08,1.2253,1.2253,1.2253,1.2253, 2405
04/01/2020,13:09,1.223,1.224,1.2225,1.224, 13852
04/01/2020,13:10,1.2215,1.2215,1.219,1.219, 2719
04/01/2020,13:10,1.219,1.219,1.219,1.219, 1060
04/01/2020,13:15,1.2202,1.2202,1.2202,1.2202, 12281
04/01/2020,13:17,1.2205,1.2235,1.2205,1.2215, 8324
04/01/2020,13:18,1.2255,1.2255,1.2225,1.2225, 6286
04/01/2020,13:21,1.2205,1.2225,1.2205,1.2225, 2372
04/01/2020,13:24,1.222,1.222,1.222,1.222, 1468
04/01/2020,13:24,1.223,1.2235,1.223,1.2235, 4228
04/01/2020,13:26,1.222,1.222,1.221,1.221, 4640
04/01/2020,13:26,1.22,1.22,1.2195,1.2195, 8355
04/01/2020,13:29,1.2192,1.2192,1.2192,1.2192, 713
04/01/2020,13:30,1.2193,1.2193,1.2193,1.2193, 706
04/01/2020,13:31,1.2205,1.224,1.2205,1.224, 9318
04/01/2020,13:33,1.2235,1.2235,1.222,1.2235, 6258
04/01/2020,13:35,1.2245,1.2245,1.2245,1.2245, 1051
04/01/2020,13:38,1.2265,1.2265,1.2265,1.2265, 175
04/01/2020,13:39,1.227,1.227,1.227,1.227, 445
04/01/2020,13:40,1.2285,1.2285,1.2285,1.2285, 120
04/01/2020,13:41,1.226,1.2265,1.2255,1.2265, 4272
04/01/2020,13:41,1.224,1.224,1.221,1.2215, 11874
04/01/2020,13:42,1.2205,1.2205,1.2205,1.2205, 2000
04/01/2020,13:45,1.2205,1.2205,1.2205,1.2205, 1304
04/01/2020,13:48,1.2195,1.2195,1.2195,1.2195, 2169
04/01/2020,13:48,1.2205,1.2225,1.2205,1.2225, 2548
04/01/2020,13:52,1.221,1.221,1.2185,1.2185, 2315
04/01/2020,13:53,1.2165,1.219,1.2165,1.219, 3658
04/01/2020,13:56,1.2175,1.218,1.2175,1.2175, 3807
04/01/2020,13:59,1.2165,1.2165,1.215,1.215, 8597
04/01/2020,13:59,1.215,1.215,1.215,1.215, 1439
04/01/2020,14:00,1.215,1.2175,1.214,1.2175, 5962
04/01/2020,14:01,1.2165,1.2165,1.2165,1.2165, 1046
04/01/2020,14:03,1.216,1.2165,1.215,1.2165, 2618
04/01/2020,14:06,1.215,1.215,1.2145,1.2145, 951
04/01/2020,14:11,1.2125,1.2138,1.2125,1.2138, 8798
04/01/2020,14:16,1.211,1.214,1.211,1.213, 12777
04/01/2020,14:19,1.2115,1.213,1.2115,1.213, 2291
04/01/2020,14:20,1.2135,1.216,1.2135,1.216, 5125
04/01/2020,14:27,1.2155,1.2155,1.2155,1.2155, 4242
04/01/2020,14:30,1.2165,1.217,1.2165,1.217, 2217
04/01/2020,14:31,1.216,1.216,1.2155,1.2155, 1719
04/01/2020,14:34,1.2145,1.215,1.2145,1.215, 1536
04/01/2020,14:36,1.2155,1.2155,1.2155,1.2155, 1280
04/01/2020,14:37,1.215,1.217,1.2145,1.217, 5737
04/01/2020,14:42,1.217,1.217,1.216,1.216, 2163
04/01/2020,14:44,1.2155,1.2155,1.2155,1.2155, 397
04/01/2020,14:47,1.216,1.216,1.2135,1.2145, 5552
04/01/2020,14:50,1.213,1.213,1.2115,1.2115, 10304
04/01/2020,14:52,1.211,1.211,1.211,1.211, 817
04/01/2020,14:54,1.212,1.213,1.212,1.213, 5941
04/01/2020,14:55,1.214,1.2145,1.214,1.2145, 1774
04/01/2020,14:57,1.2135,1.2135,1.213,1.2135, 7170
04/01/2020,14:58,1.213,1.213,1.213,1.213, 3245
04/01/2020,15:00,1.212,1.212,1.211,1.211, 1857
04/01/2020,15:02,1.2115,1.2117,1.2115,1.2117, 2381
04/01/2020,15:03,1.21,1.2105,1.21,1.2105, 4491
04/01/2020,15:08,1.2105,1.212,1.2105,1.211, 13371
04/01/2020,15:09,1.212,1.2125,1.212,1.2125, 2472
04/01/2020,15:09,1.2115,1.2115,1.2115,1.2115, 327
04/01/2020,15:12,1.211,1.211,1.211,1.211, 2956
04/01/2020,15:16,1.211,1.211,1.211,1.211, 2427
04/01/2020,15:17,1.2115,1.2125,1.2115,1.2125, 1253
04/01/2020,15:18,1.2105,1.2105,1.2105,1.2105, 1363
04/01/2020,15:24,1.209,1.209,1.209,1.209, 722
04/01/2020,15:26,1.2085,1.2085,1.2075,1.2075, 4211
04/01/2020,15:29,1.2085,1.2085,1.208,1.208, 6273
04/01/2020,15:31,1.2075,1.2075,1.2075,1.2075, 1699
04/01/2020,15:32,1.2065,1.2065,1.2065,1.2065, 2156
04/01/2020,15:33,1.208,1.209,1.2075,1.209, 4287
04/01/2020,15:34,1.208,1.208,1.2055,1.2055, 3687
04/01/2020,15:37,1.209,1.2095,1.208,1.2095, 1299
04/01/2020,15:37,1.211,1.211,1.211,1.211, 1000
04/01/2020,15:39,1.2123,1.2123,1.2123,1.2123, 5000
04/01/2020,15:40,1.212,1.212,1.212,1.212, 1250
04/01/2020,15:42,1.213,1.213,1.213,1.213, 2811
04/01/2020,15:44,1.2135,1.2145,1.2135,1.2145, 4344
04/01/2020,15:44,1.2135,1.2135,1.2125,1.2125, 4130
04/01/2020,15:47,1.211,1.211,1.2095,1.2095, 1956
04/01/2020,15:47,1.2085,1.209,1.207,1.207, 14528
04/01/2020,15:49,1.2095,1.2095,1.2095,1.2095, 3534
04/01/2020,15:51,1.209,1.209,1.209,1.209, 100
04/01/2020,15:53,1.209,1.2095,1.2085,1.2095, 5404
04/01/2020,15:53,1.2095,1.2095,1.2095,1.2095, 1901
04/01/2020,15:56,1.2085,1.2085,1.2085,1.2085, 2729
04/01/2020,15:56,1.2092,1.2092,1.2092,1.2092, 2
04/01/2020,15:57,1.2085,1.2085,1.2085,1.2085, 2617
04/01/2020,16:00,1.2075,1.208,1.2075,1.208, 5092
04/01/2020,16:02,1.207,1.207,1.207,1.207, 390
04/01/2020,16:04,1.2085,1.2085,1.2085,1.2085, 2685
04/01/2020,16:05,1.2075,1.208,1.2055,1.2055, 17780
04/01/2020,16:06,1.2055,1.206,1.2055,1.206, 777
04/01/2020,16:06,1.2055,1.2055,1.2055,1.2055, 539
04/01/2020,16:08,1.2058,1.2065,1.2058,1.2065, 7602
04/01/2020,16:08,1.2075,1.2075,1.2075,1.2075, 3320
04/01/2020,16:09,1.208,1.209,1.208,1.209, 2216
04/01/2020,16:11,1.2075,1.2095,1.2075,1.2095, 7688
04/01/2020,16:11,1.2075,1.2075,1.2075,1.2075, 4271
04/01/2020,16:12,1.209,1.209,1.209,1.209, 832
04/01/2020,16:13,1.208,1.2085,1.208,1.2085, 6097
04/01/2020,16:14,1.2085,1.2085,1.2075,1.2075, 415
04/01/2020,16:14,1.207,1.208,1.207,1.2075, 8595
04/01/2020,16:16,1.209,1.209,1.208,1.208, 2256
04/01/2020,16:17,1.2085,1.2095,1.2085,1.2095, 4672
04/01/2020,16:19,1.21,1.21,1.2085,1.209, 2674
04/01/2020,16:20,1.209,1.209,1.209,1.209, 4181
04/01/2020,16:22,1.2095,1.2095,1.209,1.209, 4484
04/01/2020,16:24,1.208,1.208,1.208,1.208, 83
04/01/2020,16:24,1.2085,1.2085,1.2085,1.2085, 297
04/01/2020,16:25,1.209,1.209,1.207,1.207, 7441
04/01/2020,16:26,1.2065,1.2065,1.2065,1.2065, 1563
04/01/2020,16:28,1.207,1.2075,1.2055,1.2055, 5877
04/01/2020,16:30,1.2045,1.2065,1.2045,1.2055, 4749
04/01/2020,16:31,1.208,1.208,1.208,1.208, 2000
04/01/2020,16:32,1.2085,1.2105,1.2085,1.2105, 10731
04/01/2020,16:33,1.2127,1.2127,1.2127,1.2127, 8239
04/01/2020,16:35,1.2115,1.2115,1.21,1.21, 4661
04/01/2020,16:36,1.2095,1.2095,1.209,1.209, 1404
04/01/2020,16:37,1.2075,1.2075,1.206,1.2075, 1465
04/01/2020,16:38,1.2068,1.2068,1.206,1.206, 2326
04/01/2020,16:39,1.2075,1.2075,1.2065,1.2065, 6332
04/01/2020,16:41,1.206,1.206,1.2035,1.2035, 10004
04/01/2020,16:42,1.203,1.2035,1.203,1.203, 2877
04/01/2020,16:43,1.2045,1.205,1.2035,1.205, 1262
04/01/2020,16:44,1.2055,1.2055,1.204,1.204, 6787
04/01/2020,16:46,1.2055,1.2055,1.2025,1.2025, 3603
04/01/2020,16:47,1.204,1.2055,1.204,1.2055, 4401
04/01/2020,16:47,1.206,1.206,1.204,1.204, 6194
04/01/2020,16:48,1.204,1.204,1.204,1.204, 471
04/01/2020,16:49,1.2045,1.205,1.2045,1.205, 3663
04/01/2020,16:51,1.2045,1.2045,1.2045,1.2045, 968
04/01/2020,16:52,1.205,1.205,1.205,1.205, 996
04/01/2020,16:52,1.206,1.206,1.206,1.206, 2707
04/01/2020,16:54,1.206,1.206,1.2045,1.206, 9661
04/01/2020,16:55,1.204,1.2071,1.204,1.2055, 16065
04/01/2020,16:56,1.204,1.204,1.204,1.204, 389
04/01/2020,16:59,1.203,1.204,1.202,1.2035, 15752
04/01/2020,17:00,1.2035,1.204,1.203,1.204, 4660
04/01/2020,17:01,1.2045,1.2055,1.2045,1.2055, 10941
04/01/2020,17:01,1.207,1.2075,1.207,1.2075, 5704
04/01/2020,17:02,1.2075,1.2075,1.2065,1.2065, 1616
04/01/2020,17:03,1.208,1.208,1.208,1.208, 832
04/01/2020,17:04,1.2078,1.2078,1.2078,1.2078, 1281
04/01/2020,17:05,1.2085,1.21,1.2085,1.21, 5153
04/01/2020,17:06,1.2105,1.2105,1.209,1.209, 5750
04/01/2020,17:07,1.2092,1.2092,1.2092,1.2092, 310
04/01/2020,17:08,1.209,1.2095,1.2075,1.2095, 15903
04/01/2020,17:10,1.2092,1.211,1.2085,1.2102, 16758
04/01/2020,17:11,1.212,1.2125,1.211,1.2115, 28285
04/01/2020,17:12,1.213,1.214,1.213,1.214, 5890
04/01/2020,17:13,1.2125,1.2135,1.21,1.2105, 30605
04/01/2020,17:15,1.21,1.21,1.209,1.209, 4880
04/01/2020,17:16,1.21,1.2105,1.21,1.21, 4846
04/01/2020,17:17,1.2105,1.2105,1.209,1.209, 4324
04/01/2020,17:19,1.2095,1.21,1.2085,1.209, 8635
04/01/2020,17:20,1.2095,1.21,1.209,1.21, 8925
04/01/2020,17:21,1.21,1.211,1.209,1.211, 9783
04/01/2020,17:23,1.21,1.211,1.21,1.211, 5113
04/01/2020,17:24,1.21,1.21,1.209,1.209, 6631
04/01/2020,17:25,1.209,1.209,1.208,1.208, 19335
04/01/2020,17:26,1.2085,1.209,1.2085,1.209, 2990
04/01/2020,17:27,1.2095,1.2095,1.2075,1.208, 12741
04/01/2020,17:29,1.2075,1.2095,1.207,1.209, 33315
04/01/2020,17:30,1.209,1.2135,1.209,1.2135, 339946
04/01/2020,17:30,1.214,1.221,1.214,1.2185, 41486
04/01/2020,17:36,1.2235,1.2235,1.2235,1.2235, 2636956
04/02/2020,09:01,1.2135,1.2135,1.2135,1.2135, 12900
04/02/2020,09:02,1.2111,1.2111,1.189,1.189, 712
04/02/2020,09:05,1.1825,1.1825,1.1825,1.1825, 79
04/02/2020,09:05,1.182,1.182,1.18,1.18, 5096
04/02/2020,09:06,1.1945,1.1945,1.1945,1.1945, 257
04/02/2020,09:07,1.1835,1.1885,1.1835,1.1885, 4679
04/02/2020,09:13,1.188,1.192,1.186,1.186, 16245
04/02/2020,09:13,1.19,1.19,1.19,1.19, 400
04/02/2020,09:14,1.192,1.192,1.1915,1.1915, 2387
04/02/2020,09:15,1.1965,1.1965,1.1965,1.1965, 2130
04/02/2020,09:17,1.194,1.194,1.1855,1.1855, 2268
04/02/2020,09:19,1.1855,1.1855,1.1855,1.1855, 1916
04/02/2020,09:19,1.189,1.189,1.189,1.189, 1114
04/02/2020,09:20,1.19,1.19,1.19,1.19, 340
04/02/2020,09:26,1.1915,1.1915,1.191,1.191, 3782
04/02/2020,09:27,1.1876,1.1876,1.1875,1.1875, 7252
04/02/2020,09:28,1.1875,1.1875,1.187,1.187, 2163
04/02/2020,09:29,1.1865,1.1884,1.1865,1.1884, 10340
04/02/2020,09:29,1.1895,1.1895,1.1885,1.1885, 7
04/02/2020,09:35,1.1877,1.1877,1.1877,1.1877, 10000
04/02/2020,09:35,1.187,1.187,1.187,1.187, 700
04/02/2020,09:37,1.185,1.1885,1.185,1.1885, 2576
04/02/2020,09:38,1.192,1.1925,1.19,1.19, 2336
04/02/2020,09:39,1.1905,1.1905,1.187,1.188, 14135
04/02/2020,09:40,1.188,1.188,1.1845,1.1865, 5481
04/02/2020,09:41,1.19,1.1915,1.1895,1.1915, 3864
04/02/2020,09:42,1.1905,1.1905,1.1905,1.1905, 304
04/02/2020,09:43,1.195,1.195,1.1935,1.1945, 1767
04/02/2020,09:44,1.1955,1.196,1.1925,1.1925, 2666
04/02/2020,09:45,1.1935,1.194,1.1935,1.194, 1173
04/02/2020,09:46,1.1955,1.1955,1.194,1.194, 2186
04/02/2020,09:47,1.194,1.1955,1.194,1.1955, 2160
04/02/2020,09:47,1.1965,1.1975,1.1965,1.1975, 5715
04/02/2020,09:49,1.1995,1.203,1.196,1.203, 24768
04/02/2020,09:50,1.2025,1.203,1.2025,1.203, 1075
04/02/2020,09:50,1.203,1.2035,1.203,1.2035, 980
04/02/2020,09:52,1.2035,1.204,1.2035,1.2035, 836
04/02/2020,09:53,1.2035,1.2035,1.201,1.201, 4814
04/02/2020,09:54,1.201,1.201,1.2005,1.201, 1082
04/02/2020,09:55,1.201,1.203,1.201,1.203, 5468
04/02/2020,09:56,1.205,1.205,1.205,1.205, 1320
04/02/2020,09:57,1.2045,1.206,1.2045,1.206, 3211
04/02/2020,09:57,1.21,1.21,1.21,1.21, 99
04/02/2020,09:59,1.212,1.212,1.2115,1.212, 2414
04/02/2020,10:00,1.207,1.207,1.2055,1.2055, 6906
04/02/2020,10:01,1.207,1.2075,1.2065,1.2075, 4160
04/02/2020,10:01,1.2085,1.2085,1.2085,1.2085, 882
04/02/2020,10:02,1.2118,1.214,1.2118,1.214, 2506
04/02/2020,10:04,1.217,1.218,1.207,1.208, 7024
04/02/2020,10:05,1.209,1.211,1.209,1.211, 607
04/02/2020,10:06,1.2105,1.211,1.2105,1.211, 2665
04/02/2020,10:07,1.209,1.209,1.2065,1.2075, 5975
04/02/2020,10:08,1.2085,1.209,1.2085,1.209, 1730
04/02/2020,10:09,1.2095,1.2095,1.2095,1.2095, 1053
04/02/2020,10:10,1.2105,1.212,1.2105,1.212, 7539
04/02/2020,10:11,1.211,1.211,1.21,1.2105, 3781
04/02/2020,10:12,1.2065,1.2095,1.205,1.208, 4291
04/02/2020,10:12,1.208,1.208,1.208,1.208, 203
04/02/2020,10:14,1.208,1.208,1.208,1.208, 404
04/02/2020,10:15,1.208,1.208,1.208,1.208, 1213
04/02/2020,10:15,1.2085,1.2085,1.208,1.208, 2217
04/02/2020,10:16,1.207,1.207,1.2065,1.2065, 608
04/02/2020,10:18,1.2075,1.2075,1.203,1.203, 1749
04/02/2020,10:19,1.203,1.204,1.203,1.204, 2772
04/02/2020,10:20,1.2045,1.2045,1.2045,1.2045, 550
04/02/2020,10:20,1.2045,1.2045,1.199,1.199, 5781
04/02/2020,10:23,1.2005,1.2005,1.2005,1.2005, 15396
04/02/2020,10:25,1.197,1.2015,1.197,1.201, 23508
04/02/2020,10:27,1.198,1.2015,1.198,1.2015, 10884
04/02/2020,10:27,1.2015,1.2015,1.2015,1.2015, 4397
04/02/2020,10:28,1.202,1.203,1.202,1.203, 3241
04/02/2020,10:30,1.205,1.205,1.202,1.2025, 3855
04/02/2020,10:31,1.204,1.2065,1.204,1.206, 19084
04/02/2020,10:34,1.2025,1.2025,1.2025,1.2025, 2068
04/02/2020,10:34,1.2025,1.2025,1.202,1.202, 2564
04/02/2020,10:38,1.2,1.2,1.198,1.199, 9129
04/02/2020,10:40,1.2,1.2,1.2,1.2, 1210
04/02/2020,10:42,1.1985,1.199,1.1985,1.199, 1804
04/02/2020,10:45,1.197,1.2,1.197,1.1975, 5180
04/02/2020,10:52,1.1993,1.1993,1.1993,1.1993, 97
04/02/2020,10:58,1.1975,1.1975,1.197,1.1975, 4031
04/02/2020,11:00,1.2,1.2005,1.1995,1.1995, 2798
04/02/2020,11:01,1.2015,1.2015,1.201,1.2015, 1798
04/02/2020,11:04,1.2,1.2,1.199,1.199, 6187
04/02/2020,11:08,1.2,1.2,1.2,1.2, 184
04/02/2020,11:12,1.1985,1.1985,1.1985,1.1985, 1611
04/02/2020,11:15,1.1995,1.2015,1.199,1.201, 10715
04/02/2020,11:15,1.2008,1.2008,1.2,1.2, 5969
04/02/2020,11:19,1.2,1.2,1.2,1.2, 500
04/02/2020,11:19,1.199,1.199,1.198,1.1985, 12889
04/02/2020,11:26,1.1965,1.197,1.1945,1.197, 11560
04/02/2020,11:30,1.1955,1.1955,1.1955,1.1955, 1000
04/02/2020,11:31,1.1965,1.1965,1.1965,1.1965, 1000
04/02/2020,11:34,1.1975,1.1975,1.1965,1.1965, 1908
04/02/2020,11:36,1.1965,1.1975,1.1965,1.197, 11578
04/02/2020,11:36,1.197,1.197,1.197,1.197, 1375
04/02/2020,11:38,1.196,1.196,1.196,1.196, 3771
04/02/2020,11:40,1.196,1.196,1.1945,1.1945, 6930
04/02/2020,11:42,1.1935,1.196,1.1935,1.1955, 9803
04/02/2020,11:42,1.1955,1.1955,1.1955,1.1955, 5497
04/02/2020,11:44,1.195,1.1955,1.1945,1.1955, 2605
04/02/2020,11:45,1.1935,1.1945,1.1935,1.1945, 4302
04/02/2020,11:49,1.1945,1.196,1.1945,1.196, 5244
04/02/2020,11:52,1.195,1.1965,1.195,1.1965, 3783
04/02/2020,11:53,1.1975,1.1975,1.196,1.1973, 43107
04/02/2020,11:56,1.1985,1.199,1.197,1.198, 3184
04/02/2020,11:56,1.199,1.199,1.1985,1.1985, 1252
04/02/2020,12:00,1.1975,1.198,1.196,1.196, 11591
04/02/2020,12:00,1.196,1.197,1.195,1.197, 14855
04/02/2020,12:02,1.197,1.197,1.1965,1.1965, 4727
04/02/2020,12:02,1.197,1.197,1.197,1.197, 1420
04/02/2020,12:04,1.197,1.197,1.197,1.197, 1330
04/02/2020,12:05,1.1965,1.197,1.1965,1.197, 6935
04/02/2020,12:07,1.196,1.1965,1.196,1.196, 3691
04/02/2020,12:07,1.197,1.197,1.196,1.1965, 16781
04/02/2020,12:11,1.1955,1.196,1.1955,1.196, 3345
04/02/2020,12:15,1.195,1.198,1.195,1.198, 14249
04/02/2020,12:17,1.197,1.197,1.197,1.197, 3278
04/02/2020,12:18,1.1953,1.1953,1.1953,1.1953, 1677
04/02/2020,12:20,1.1965,1.197,1.1965,1.197, 4201
04/02/2020,12:21,1.196,1.196,1.196,1.196, 349
04/02/2020,12:23,1.196,1.196,1.196,1.196, 176
04/02/2020,12:24,1.1965,1.197,1.1965,1.197, 4616
04/02/2020,12:26,1.196,1.197,1.196,1.1965, 2199
04/02/2020,12:26,1.197,1.197,1.197,1.197, 1
04/02/2020,12:28,1.197,1.1975,1.197,1.197, 2075
04/02/2020,12:30,1.1965,1.1965,1.1946,1.1958, 15419
04/02/2020,12:32,1.195,1.195,1.195,1.195, 1022
04/02/2020,12:37,1.196,1.1975,1.1955,1.197, 10796
04/02/2020,12:42,1.1985,1.199,1.1985,1.199, 2436
04/02/2020,12:43,1.198,1.199,1.198,1.198, 4200
04/02/2020,12:52,1.1985,1.199,1.1985,1.199, 6926
04/02/2020,12:55,1.1985,1.1985,1.1975,1.198, 7760
04/02/2020,12:58,1.1935,1.1965,1.1935,1.1965, 17390
04/02/2020,13:00,1.199,1.199,1.197,1.1985, 7565
04/02/2020,13:03,1.202,1.202,1.202,1.202, 1522
04/02/2020,13:03,1.1971,1.198,1.1971,1.198, 14281
04/02/2020,13:04,1.1985,1.1985,1.1985,1.1985, 1622
04/02/2020,13:06,1.201,1.201,1.201,1.201, 1345
04/02/2020,13:07,1.2005,1.2005,1.2005,1.2005, 2305
04/02/2020,13:07,1.199,1.199,1.199,1.199, 1693
04/02/2020,13:09,1.198,1.2005,1.198,1.2005, 8945
04/02/2020,13:10,1.201,1.201,1.2,1.2, 10414
04/02/2020,13:13,1.199,1.199,1.199,1.199, 5733
04/02/2020,13:13,1.202,1.204,1.2015,1.2015, 10807
04/02/2020,13:14,1.202,1.202,1.202,1.202, 2849
04/02/2020,13:20,1.2025,1.2025,1.201,1.201, 9509
04/02/2020,13:23,1.1995,1.2,1.1995,1.2, 1524
04/02/2020,13:29,1.1985,1.1985,1.1985,1.1985, 1325
04/02/2020,13:30,1.2005,1.201,1.2005,1.2005, 2603
04/02/2020,13:31,1.2005,1.2005,1.2005,1.2005, 755
04/02/2020,13:33,1.199,1.199,1.199,1.199, 1656
04/02/2020,13:35,1.2005,1.2005,1.2005,1.2005, 1869
04/02/2020,13:41,1.201,1.201,1.201,1.201, 2912
04/02/2020,13:45,1.1995,1.1995,1.1995,1.1995, 3329
04/02/2020,13:52,1.1995,1.1995,1.1995,1.1995, 4734
04/02/2020,13:53,1.2,1.2,1.2,1.2, 4
04/02/2020,13:53,1.199,1.2,1.199,1.1995, 5051
04/02/2020,13:55,1.1995,1.1995,1.1995,1.1995, 2732
04/02/2020,13:56,1.199,1.199,1.199,1.199, 2000
04/02/2020,13:58,1.199,1.199,1.199,1.199, 774
04/02/2020,14:00,1.1975,1.199,1.1975,1.199, 7175
04/02/2020,14:02,1.198,1.198,1.1975,1.1975, 1683
04/02/2020,14:11,1.1985,1.1985,1.1985,1.1985, 351
04/02/2020,14:11,1.1985,1.1985,1.1985,1.1985, 2243
04/02/2020,14:12,1.2015,1.202,1.2005,1.2015, 16066
04/02/2020,14:13,1.2015,1.2015,1.2015,1.2015, 2000
04/02/2020,14:16,1.2015,1.2015,1.2005,1.2005, 719
04/02/2020,14:17,1.199,1.199,1.199,1.199, 2550
04/02/2020,14:23,1.201,1.201,1.201,1.201, 1
04/02/2020,14:24,1.2,1.201,1.1995,1.201, 9534
04/02/2020,14:25,1.2005,1.2005,1.2005,1.2005, 1112
04/02/2020,14:26,1.198,1.1995,1.198,1.199, 8881
04/02/2020,14:26,1.2,1.2,1.199,1.199, 4792
04/02/2020,14:29,1.199,1.199,1.199,1.199, 2131
04/02/2020,14:30,1.2005,1.201,1.2005,1.201, 1852
04/02/2020,14:31,1.2,1.2,1.2,1.2, 3506
04/02/2020,14:32,1.201,1.202,1.201,1.201, 9690
04/02/2020,14:33,1.1995,1.1995,1.1995,1.1995, 4468
04/02/2020,14:35,1.2,1.201,1.2,1.201, 3287
04/02/2020,14:36,1.201,1.201,1.1995,1.1995, 9261
04/02/2020,14:37,1.1985,1.1995,1.1985,1.1995, 11866
04/02/2020,14:37,1.198,1.198,1.198,1.198, 3112
04/02/2020,14:38,1.198,1.198,1.1955,1.1955, 30523
04/02/2020,14:40,1.1955,1.1955,1.1955,1.1955, 5635
04/02/2020,14:41,1.1945,1.1945,1.1945,1.1945, 1030
04/02/2020,14:43,1.1935,1.1945,1.1935,1.1945, 6211
04/02/2020,14:43,1.195,1.195,1.195,1.195, 2316
04/02/2020,14:45,1.196,1.197,1.196,1.197, 4662
04/02/2020,14:54,1.1965,1.199,1.1965,1.199, 8540
04/02/2020,14:56,1.1995,1.203,1.1995,1.202, 12429
04/02/2020,14:58,1.202,1.202,1.202,1.202, 1289
04/02/2020,15:00,1.2025,1.203,1.2025,1.203, 1526
04/02/2020,15:00,1.204,1.204,1.204,1.204, 2782
04/02/2020,15:03,1.202,1.203,1.2015,1.203, 8493
04/02/2020,15:03,1.2025,1.2025,1.2025,1.2025, 1729
04/02/2020,15:04,1.2035,1.2045,1.2025,1.2025, 5959
04/02/2020,15:06,1.2025,1.2025,1.2005,1.2005, 7284
04/02/2020,15:07,1.2,1.202,1.1995,1.202, 26617
04/02/2020,15:08,1.2035,1.2035,1.202,1.202, 6968
04/02/2020,15:09,1.2015,1.2015,1.2015,1.2015, 2028
04/02/2020,15:10,1.2015,1.2015,1.2015,1.2015, 7566
04/02/2020,15:10,1.2025,1.2045,1.2025,1.2045, 10091
04/02/2020,15:12,1.2035,1.2045,1.202,1.204, 4989
04/02/2020,15:12,1.201,1.201,1.201,1.201, 3507
04/02/2020,15:14,1.201,1.2025,1.201,1.2025, 3466
04/02/2020,15:15,1.2015,1.2015,1.201,1.201, 4510
04/02/2020,15:16,1.2015,1.203,1.1985,1.203, 63416
04/02/2020,15:16,1.203,1.2055,1.203,1.2055, 20033
04/02/2020,15:17,1.204,1.204,1.2035,1.2035, 9027
04/02/2020,15:20,1.202,1.202,1.202,1.202, 3333
04/02/2020,15:20,1.2,1.2,1.2,1.2, 1012
04/02/2020,15:22,1.203,1.204,1.203,1.204, 11453
04/02/2020,15:23,1.205,1.205,1.205,1.205, 2297
04/02/2020,15:23,1.205,1.207,1.205,1.207, 6400
04/02/2020,15:25,1.2085,1.209,1.2085,1.209, 5604
04/02/2020,15:26,1.2075,1.2075,1.205,1.205, 11677
04/02/2020,15:26,1.2035,1.2035,1.2035,1.2035, 9153
04/02/2020,15:29,1.2025,1.203,1.201,1.2025, 16327
04/02/2020,15:30,1.203,1.203,1.2025,1.203, 7736
04/02/2020,15:31,1.2,1.2015,1.2,1.2015, 16341
04/02/2020,15:31,1.202,1.2045,1.202,1.202, 13120
04/02/2020,15:32,1.2025,1.2025,1.2025,1.2025, 5500
04/02/2020,15:33,1.206,1.206,1.206,1.206, 190
04/02/2020,15:34,1.2045,1.205,1.204,1.205, 11174
04/02/2020,15:37,1.208,1.208,1.208,1.208, 403
04/02/2020,15:37,1.207,1.207,1.205,1.2065, 4316
04/02/2020,15:38,1.2045,1.2045,1.2045,1.2045, 1154
04/02/2020,15:39,1.2045,1.207,1.2045,1.207, 6722
04/02/2020,15:39,1.207,1.207,1.207,1.207, 2000
04/02/2020,15:40,1.2075,1.2075,1.2075,1.2075, 1383
04/02/2020,15:41,1.2065,1.2065,1.206,1.206, 1527
04/02/2020,15:42,1.204,1.204,1.204,1.204, 3390
04/02/2020,15:43,1.204,1.2045,1.204,1.2045, 1393
04/02/2020,15:43,1.2045,1.2045,1.2045,1.2045, 2000
04/02/2020,15:45,1.2035,1.2035,1.2015,1.2035, 7158
04/02/2020,15:45,1.2035,1.2035,1.2035,1.2035, 4848
04/02/2020,15:47,1.204,1.204,1.202,1.203, 5342
04/02/2020,15:48,1.202,1.204,1.202,1.204, 9573
04/02/2020,15:49,1.203,1.203,1.203,1.203, 1168
04/02/2020,15:50,1.2025,1.2025,1.2025,1.2025, 4264
04/02/2020,15:52,1.204,1.204,1.203,1.203, 4519
04/02/2020,15:52,1.204,1.204,1.204,1.204, 94
04/02/2020,15:54,1.2037,1.2037,1.1985,1.2025, 29872
04/02/2020,15:55,1.2025,1.2025,1.2005,1.2005, 2464
04/02/2020,15:56,1.2005,1.203,1.2005,1.203, 9618
04/02/2020,15:58,1.2055,1.2055,1.2045,1.205, 7438
04/02/2020,16:00,1.2075,1.2075,1.2075,1.2075, 946
04/02/2020,16:02,1.2065,1.207,1.2065,1.207, 5670
04/02/2020,16:02,1.205,1.205,1.205,1.205, 30
04/02/2020,16:05,1.207,1.207,1.206,1.206, 10271
04/02/2020,16:06,1.2045,1.206,1.2045,1.205, 8902
04/02/2020,16:07,1.2045,1.2045,1.2045,1.2045, 2000
04/02/2020,16:08,1.2055,1.2055,1.2055,1.2055, 5172
04/02/2020,16:09,1.208,1.208,1.208,1.208, 2693
04/02/2020,16:11,1.2095,1.2095,1.2095,1.2095, 2158
04/02/2020,16:12,1.211,1.213,1.211,1.213, 12248
04/02/2020,16:13,1.213,1.213,1.213,1.213, 1322
04/02/2020,16:14,1.211,1.211,1.2105,1.211, 6578
04/02/2020,16:15,1.2095,1.21,1.208,1.208, 5119
04/02/2020,16:16,1.2075,1.208,1.2075,1.208, 2202
04/02/2020,16:17,1.208,1.208,1.208,1.208, 3280
04/02/2020,16:17,1.208,1.208,1.208,1.208, 2000
04/02/2020,16:18,1.2065,1.2065,1.2065,1.2065, 2508
04/02/2020,16:18,1.2055,1.2055,1.2035,1.2035, 6147
04/02/2020,16:20,1.2035,1.2035,1.202,1.202, 3461
04/02/2020,16:21,1.2025,1.2025,1.2025,1.2025, 2644
04/02/2020,16:23,1.2025,1.2025,1.2025,1.2025, 4000
04/02/2020,16:23,1.2025,1.2025,1.2025,1.2025, 2000
04/02/2020,16:24,1.2025,1.2025,1.2015,1.2015, 2607
04/02/2020,16:24,1.2015,1.2015,1.2,1.2015, 6121
04/02/2020,16:25,1.2005,1.201,1.2005,1.201, 1348
04/02/2020,16:25,1.2015,1.202,1.2015,1.202, 3101
04/02/2020,16:27,1.203,1.203,1.2025,1.203, 7294
04/02/2020,16:28,1.203,1.2035,1.2025,1.2035, 4206
04/02/2020,16:28,1.202,1.2035,1.202,1.202, 11085
04/02/2020,16:28,1.202,1.202,1.202,1.202, 742
04/02/2020,16:30,1.2025,1.2025,1.202,1.2025, 2153
04/02/2020,16:30,1.204,1.205,1.204,1.2045, 7559
04/02/2020,16:30,1.207,1.207,1.207,1.207, 86
04/02/2020,16:31,1.206,1.2065,1.206,1.2065, 2881
04/02/2020,16:32,1.208,1.2095,1.208,1.2095, 4080
04/02/2020,16:33,1.213,1.213,1.213,1.213, 2478
04/02/2020,16:33,1.2115,1.2115,1.2095,1.2095, 8045
04/02/2020,16:34,1.209,1.209,1.209,1.209, 3186
04/02/2020,16:35,1.2095,1.2115,1.2095,1.2115, 15852
04/02/2020,16:36,1.2115,1.212,1.21,1.212, 4993
04/02/2020,16:36,1.212,1.212,1.212,1.212, 2023
04/02/2020,16:38,1.2155,1.216,1.2155,1.216, 13610
04/02/2020,16:39,1.216,1.217,1.2125,1.217, 13915
04/02/2020,16:39,1.217,1.217,1.217,1.217, 501
04/02/2020,16:41,1.217,1.217,1.2135,1.2135, 10510
04/02/2020,16:42,1.213,1.213,1.213,1.213, 1773
04/02/2020,16:44,1.2105,1.211,1.21,1.211, 2279
04/02/2020,16:44,1.2095,1.2095,1.2095,1.2095, 1037
04/02/2020,16:47,1.2065,1.2065,1.2065,1.2065, 4633
04/02/2020,16:48,1.2065,1.2075,1.206,1.2075, 14765
04/02/2020,16:48,1.207,1.207,1.2065,1.2065, 7123
04/02/2020,16:49,1.2065,1.2075,1.2065,1.2075, 3183
04/02/2020,16:50,1.208,1.208,1.208,1.208, 4568
04/02/2020,16:51,1.207,1.2075,1.2065,1.2065, 7284
04/02/2020,16:52,1.206,1.206,1.206,1.206, 2175
04/02/2020,16:52,1.2075,1.2085,1.205,1.205, 7559
04/02/2020,16:53,1.2045,1.2045,1.203,1.203, 1245
04/02/2020,16:55,1.201,1.201,1.201,1.201, 250
04/02/2020,16:56,1.2035,1.2045,1.2015,1.204, 17788
04/02/2020,16:57,1.204,1.204,1.204,1.204, 466
04/02/2020,16:59,1.204,1.205,1.204,1.205, 5385
04/02/2020,17:00,1.2045,1.2045,1.2025,1.2025, 10123
04/02/2020,17:01,1.2025,1.2025,1.198,1.199, 9666
04/02/2020,17:04,1.201,1.201,1.1995,1.2, 10221
04/02/2020,17:08,1.201,1.201,1.198,1.198, 10735
04/02/2020,17:11,1.196,1.196,1.1955,1.1955, 6410
04/02/2020,17:14,1.1935,1.1935,1.193,1.1935, 15710
04/02/2020,17:16,1.194,1.1965,1.194,1.1965, 10849
04/02/2020,17:16,1.195,1.196,1.195,1.196, 10091
04/02/2020,17:18,1.196,1.1995,1.196,1.1985, 18564
04/02/2020,17:19,1.2005,1.202,1.1975,1.1975, 25982
04/02/2020,17:19,1.1975,1.1985,1.1975,1.198, 8114
04/02/2020,17:21,1.1975,1.199,1.1975,1.199, 8976
04/02/2020,17:22,1.2,1.2025,1.2,1.202, 17211
04/02/2020,17:23,1.202,1.2035,1.199,1.199, 21702
04/02/2020,17:24,1.1995,1.2005,1.1995,1.2005, 6436
04/02/2020,17:25,1.201,1.2025,1.198,1.1985, 36385
04/02/2020,17:26,1.2,1.2005,1.2,1.2005, 5997
04/02/2020,17:28,1.201,1.2025,1.1995,1.2025, 16544
04/02/2020,17:29,1.203,1.2055,1.203,1.2055, 25512
04/02/2020,17:30,1.2065,1.2065,1.201,1.2035, 11478
04/02/2020,17:36,1.202,1.202,1.202,1.202, 955878
04/03/2020,09:02,1.196,1.206,1.196,1.206, 3505
04/03/2020,09:02,1.21,1.21,1.21,1.21, 382
04/03/2020,09:04,1.211,1.233,1.2105,1.2125, 13852
04/03/2020,09:04,1.2115,1.2115,1.209,1.209, 2614
04/03/2020,09:07,1.2065,1.218,1.202,1.202, 16506
04/03/2020,09:08,1.203,1.203,1.203,1.203, 2771
04/03/2020,09:12,1.215,1.2155,1.1985,1.2005, 6667
04/03/2020,09:12,1.2,1.203,1.1995,1.203, 11718
04/03/2020,09:16,1.2,1.2,1.2,1.2, 2070
04/03/2020,09:16,1.1956,1.197,1.1915,1.1915, 14394
04/03/2020,09:17,1.1885,1.19,1.1885,1.19, 4912
04/03/2020,09:18,1.186,1.186,1.186,1.186, 1486
04/03/2020,09:20,1.183,1.191,1.1765,1.1895, 35602
04/03/2020,09:20,1.1875,1.1875,1.1845,1.1865, 7819
04/03/2020,09:23,1.1855,1.1945,1.1855,1.1915, 20337
04/03/2020,09:23,1.196,1.1965,1.1915,1.1915, 21614
04/03/2020,09:25,1.1955,1.2015,1.1955,1.2005, 12650
04/03/2020,09:27,1.202,1.2055,1.201,1.2055, 21498
04/03/2020,09:28,1.2035,1.2035,1.2035,1.2035, 1000
04/03/2020,09:28,1.2035,1.2035,1.2035,1.2035, 757
04/03/2020,09:30,1.2065,1.2065,1.2065,1.2065, 820
04/03/2020,09:30,1.2065,1.2065,1.2065,1.2065, 1054
04/03/2020,09:32,1.203,1.203,1.203,1.203, 1312
04/03/2020,09:32,1.2035,1.2035,1.2035,1.2035, 979
04/03/2020,09:34,1.2005,1.2005,1.2005,1.2005, 172
04/03/2020,09:35,1.204,1.205,1.204,1.205, 5359
04/03/2020,09:35,1.203,1.203,1.203,1.203, 1372
04/03/2020,09:37,1.201,1.2015,1.197,1.2015, 29514
04/03/2020,09:37,1.203,1.205,1.202,1.202, 5729
04/03/2020,09:39,1.2025,1.2025,1.201,1.202, 7450
04/03/2020,09:40,1.2,1.2025,1.196,1.202, 30438
04/03/2020,09:40,1.2035,1.205,1.2035,1.204, 5269
04/03/2020,09:42,1.2045,1.2065,1.2035,1.206, 3250
04/03/2020,09:43,1.204,1.204,1.203,1.203, 1568
04/03/2020,09:44,1.2035,1.2095,1.2015,1.2075, 72137
04/03/2020,09:44,1.2115,1.215,1.211,1.2125, 13214
04/03/2020,09:46,1.211,1.211,1.211,1.211, 8428
04/03/2020,09:47,1.21,1.21,1.21,1.21, 4312
04/03/2020,09:49,1.208,1.209,1.2046,1.2046, 25641
04/03/2020,09:50,1.2065,1.2085,1.2065,1.207, 21549
04/03/2020,09:50,1.2065,1.207,1.2065,1.207, 2267
04/03/2020,09:51,1.209,1.209,1.207,1.2075, 7909
04/03/2020,09:53,1.209,1.209,1.209,1.209, 626
04/03/2020,09:53,1.209,1.211,1.209,1.2105, 14238
04/03/2020,09:55,1.211,1.212,1.2085,1.2085, 6605
04/03/2020,09:55,1.21,1.21,1.2055,1.207, 20843
04/03/2020,09:57,1.2085,1.209,1.2085,1.209, 795
04/03/2020,09:59,1.209,1.2105,1.209,1.2105, 8432
04/03/2020,09:59,1.2115,1.214,1.2115,1.214, 3219
04/03/2020,10:01,1.213,1.215,1.211,1.211, 9906
04/03/2020,10:02,1.212,1.219,1.212,1.217, 25532
04/03/2020,10:04,1.217,1.217,1.2095,1.21, 30504
04/03/2020,10:05,1.209,1.212,1.209,1.211, 18424
04/03/2020,10:06,1.21,1.213,1.2065,1.2125, 47483
04/03/2020,10:07,1.2115,1.2145,1.2115,1.2115, 16055
04/03/2020,10:07,1.2115,1.2115,1.2115,1.2115, 6984
04/03/2020,10:09,1.211,1.2165,1.21,1.2165, 19917
04/03/2020,10:10,1.216,1.2175,1.216,1.2175, 772
04/03/2020,10:11,1.2185,1.2205,1.2185,1.2205, 8768
04/03/2020,10:12,1.219,1.22,1.217,1.22, 33237
04/03/2020,10:12,1.2195,1.2195,1.2195,1.2195, 2000
04/03/2020,10:14,1.2187,1.2187,1.217,1.217, 7687
04/03/2020,10:15,1.217,1.219,1.217,1.219, 9901
04/03/2020,10:16,1.217,1.217,1.217,1.217, 2041
04/03/2020,10:17,1.22,1.22,1.22,1.22, 299
04/03/2020,10:17,1.22,1.2215,1.22,1.2215, 626
04/03/2020,10:18,1.222,1.222,1.2215,1.2215, 358
04/03/2020,10:20,1.219,1.219,1.216,1.216, 14805
04/03/2020,10:20,1.2162,1.2162,1.2162,1.2162, 246
04/03/2020,10:22,1.2155,1.2155,1.211,1.213, 34097
04/03/2020,10:22,1.213,1.2135,1.21,1.2125, 20838
04/03/2020,10:23,1.2125,1.2145,1.2125,1.2135, 8517
04/03/2020,10:25,1.2125,1.2125,1.212,1.212, 3322
04/03/2020,10:26,1.21,1.2105,1.208,1.209, 15805
04/03/2020,10:28,1.209,1.209,1.2065,1.207, 9007
04/03/2020,10:28,1.207,1.207,1.2065,1.2065, 9183
04/03/2020,10:30,1.2075,1.211,1.2075,1.211, 40099
04/03/2020,10:31,1.2105,1.2105,1.21,1.21, 2190
04/03/2020,10:33,1.2095,1.2095,1.207,1.207, 23963
04/03/2020,10:34,1.2065,1.2065,1.205,1.206, 5413
04/03/2020,10:34,1.2065,1.2075,1.2065,1.2075, 8831
04/03/2020,10:35,1.209,1.209,1.209,1.209, 1230
04/03/2020,10:36,1.2095,1.2095,1.2075,1.2075, 10354
04/03/2020,10:38,1.2095,1.21,1.2095,1.2095, 3734
04/03/2020,10:39,1.2085,1.2085,1.207,1.207, 7966
04/03/2020,10:41,1.2055,1.206,1.2055,1.2055, 7600
04/03/2020,10:42,1.207,1.217,1.207,1.2145, 27560
04/03/2020,10:43,1.217,1.22,1.216,1.22, 32150
04/03/2020,10:43,1.2205,1.222,1.2205,1.221, 33054
04/03/2020,10:45,1.219,1.2205,1.2175,1.2195, 25842
04/03/2020,10:50,1.2205,1.2205,1.2205,1.2205, 2549
04/03/2020,10:51,1.2205,1.221,1.2175,1.2175, 7732
04/03/2020,10:52,1.2177,1.2177,1.216,1.216, 2911
04/03/2020,10:53,1.2155,1.2175,1.2155,1.2165, 5285
04/03/2020,10:55,1.217,1.2205,1.217,1.2205, 19617
04/03/2020,10:55,1.221,1.221,1.221,1.221, 203
04/03/2020,10:57,1.2225,1.223,1.2225,1.223, 319
04/03/2020,10:58,1.222,1.2235,1.222,1.2235, 5408
04/03/2020,11:00,1.2235,1.2235,1.2195,1.221, 7723
04/03/2020,11:01,1.22,1.2205,1.22,1.22, 6318
04/03/2020,11:02,1.221,1.221,1.221,1.221, 348
04/03/2020,11:03,1.2195,1.2195,1.2195,1.2195, 1122
04/03/2020,11:05,1.2175,1.2175,1.2175,1.2175, 1340
04/03/2020,11:06,1.219,1.219,1.2185,1.219, 3070
04/03/2020,11:07,1.218,1.218,1.2145,1.215, 17790
04/03/2020,11:09,1.216,1.216,1.2155,1.2155, 2407
04/03/2020,11:11,1.2135,1.2155,1.21,1.212, 23073
04/03/2020,11:14,1.212,1.212,1.212,1.212, 2011
04/03/2020,11:15,1.2125,1.216,1.2125,1.216, 18574
04/03/2020,11:15,1.2165,1.2165,1.2165,1.2165, 267
04/03/2020,11:17,1.216,1.216,1.2125,1.2125, 5194
04/03/2020,11:17,1.2145,1.216,1.214,1.216, 10892
04/03/2020,11:19,1.216,1.216,1.216,1.216, 992
04/03/2020,11:21,1.213,1.213,1.209,1.209, 8873
04/03/2020,11:21,1.209,1.2095,1.209,1.2095, 5255
04/03/2020,11:23,1.2095,1.2095,1.2095,1.2095, 4726
04/03/2020,11:24,1.209,1.2105,1.209,1.2105, 17102
04/03/2020,11:24,1.2115,1.2115,1.2115,1.2115, 2123
04/03/2020,11:26,1.208,1.21,1.208,1.21, 7493
04/03/2020,11:27,1.2095,1.2105,1.2095,1.2105, 2811
04/03/2020,11:29,1.209,1.209,1.2055,1.2065, 8513
04/03/2020,11:30,1.203,1.203,1.2005,1.2005, 3078
04/03/2020,11:31,1.1991,1.1991,1.1991,1.1991, 10000
04/03/2020,11:31,1.2003,1.2003,1.2003,1.2003, 1000
04/03/2020,11:33,1.199,1.21,1.1985,1.21, 40532
04/03/2020,11:33,1.2085,1.21,1.2085,1.2095, 7585
04/03/2020,11:35,1.208,1.208,1.205,1.205, 5767
04/03/2020,11:35,1.203,1.203,1.2,1.202, 7112
04/03/2020,11:37,1.2008,1.2008,1.2008,1.2008, 2000
04/03/2020,11:38,1.1995,1.2025,1.1995,1.2025, 4350
04/03/2020,11:39,1.2007,1.2007,1.2007,1.2007, 1471
04/03/2020,11:41,1.2035,1.2045,1.203,1.2045, 9944
04/03/2020,11:43,1.206,1.21,1.205,1.2095, 33319
04/03/2020,11:44,1.21,1.21,1.21,1.21, 91
04/03/2020,11:46,1.21,1.21,1.21,1.21, 11791
04/03/2020,11:50,1.2095,1.2095,1.2075,1.2075, 325
04/03/2020,11:52,1.208,1.208,1.208,1.208, 961
04/03/2020,11:54,1.2085,1.2085,1.2085,1.2085, 1335
04/03/2020,11:54,1.208,1.208,1.208,1.208, 2994
04/03/2020,11:56,1.21,1.21,1.21,1.21, 3854
04/03/2020,12:01,1.21,1.21,1.21,1.21, 7260
04/03/2020,12:01,1.2105,1.2105,1.2105,1.2105, 963
04/03/2020,12:02,1.211,1.2115,1.211,1.2115, 6497
04/03/2020,12:05,1.2105,1.2105,1.2095,1.2095, 1832
04/03/2020,12:09,1.2075,1.208,1.2075,1.2075, 3272
04/03/2020,12:10,1.2035,1.2035,1.199,1.199, 12833
04/03/2020,12:11,1.1995,1.2005,1.1995,1.2005, 7045
04/03/2020,12:12,1.199,1.1995,1.199,1.1995, 17536
04/03/2020,12:14,1.1988,1.1988,1.1988,1.1988, 996
04/03/2020,12:15,1.1988,1.1988,1.1988,1.1988, 83
04/03/2020,12:19,1.1995,1.1995,1.1975,1.1995, 2782
04/03/2020,12:20,1.1975,1.1975,1.1975,1.1975, 3035
04/03/2020,12:23,1.197,1.197,1.195,1.196, 13003
04/03/2020,12:23,1.197,1.198,1.197,1.198, 11481
04/03/2020,12:24,1.199,1.199,1.199,1.199, 4331
04/03/2020,12:27,1.1985,1.1985,1.197,1.197, 1940
04/03/2020,12:28,1.197,1.197,1.197,1.197, 2000
04/03/2020,12:31,1.1955,1.1955,1.193,1.195, 21337
04/03/2020,12:32,1.194,1.195,1.194,1.1945, 13818
04/03/2020,12:33,1.193,1.1945,1.192,1.194, 5888
04/03/2020,12:34,1.195,1.2015,1.194,1.1985, 182830
04/03/2020,12:37,1.2,1.203,1.2,1.203, 23275
04/03/2020,12:38,1.2025,1.2025,1.2025,1.2025, 1890
04/03/2020,12:39,1.2055,1.211,1.2035,1.211, 53195
04/03/2020,12:41,1.21,1.21,1.21,1.21, 36455
04/03/2020,12:42,1.214,1.215,1.213,1.215, 25408
04/03/2020,12:44,1.2132,1.2133,1.2132,1.2133, 1519
04/03/2020,12:45,1.2125,1.2125,1.21,1.21, 9221
04/03/2020,12:46,1.2105,1.2105,1.2105,1.2105, 1256
04/03/2020,12:48,1.2125,1.2125,1.212,1.212, 3500
04/03/2020,12:49,1.2135,1.214,1.213,1.213, 7571
04/03/2020,12:50,1.2135,1.2135,1.212,1.212, 5831
04/03/2020,12:52,1.213,1.213,1.2105,1.212, 10108
04/03/2020,12:55,1.2115,1.2115,1.2105,1.2105, 5221
04/03/2020,12:56,1.21,1.2115,1.21,1.2115, 11182
04/03/2020,12:56,1.2105,1.2105,1.2105,1.2105, 1955
04/03/2020,12:58,1.212,1.2125,1.212,1.2125, 3970
04/03/2020,12:58,1.212,1.212,1.2115,1.212, 5334
04/03/2020,13:00,1.212,1.2125,1.2115,1.212, 8725
04/03/2020,13:00,1.2125,1.2125,1.2115,1.212, 11770
04/03/2020,13:03,1.21,1.21,1.21,1.21, 3958
04/03/2020,13:04,1.21,1.2105,1.21,1.21, 25266
04/03/2020,13:04,1.209,1.213,1.209,1.213, 17011
04/03/2020,13:06,1.2135,1.2135,1.213,1.2135, 9556
04/03/2020,13:07,1.213,1.213,1.21,1.211, 29306
04/03/2020,13:09,1.2115,1.2115,1.211,1.211, 5392
04/03/2020,13:09,1.21,1.2115,1.2095,1.2115, 22727
04/03/2020,13:11,1.2105,1.211,1.21,1.211, 69436
04/03/2020,13:13,1.21,1.21,1.21,1.21, 2458
04/03/2020,13:14,1.2125,1.213,1.2115,1.213, 11253
04/03/2020,13:14,1.213,1.213,1.213,1.213, 2441
04/03/2020,13:17,1.2105,1.2105,1.21,1.2105, 15138
04/03/2020,13:19,1.21,1.211,1.209,1.211, 39955
04/03/2020,13:21,1.2112,1.2112,1.2112,1.2112, 1266
04/03/2020,13:23,1.2105,1.2115,1.2105,1.2115, 6948
04/03/2020,13:26,1.21,1.2135,1.21,1.213, 67849
04/03/2020,13:26,1.2135,1.2135,1.2135,1.2135, 795
04/03/2020,13:28,1.2145,1.2145,1.2145,1.2145, 5234
04/03/2020,13:29,1.214,1.214,1.2135,1.2135, 4757
04/03/2020,13:29,1.214,1.214,1.214,1.214, 6070
04/03/2020,13:31,1.2145,1.215,1.214,1.2145, 7169
04/03/2020,13:32,1.2155,1.216,1.2155,1.2155, 9158
04/03/2020,13:34,1.214,1.214,1.213,1.213, 3009
04/03/2020,13:34,1.2125,1.2125,1.2115,1.2125, 6959
04/03/2020,13:35,1.213,1.213,1.213,1.213, 126
04/03/2020,13:39,1.213,1.213,1.212,1.212, 2668
04/03/2020,13:42,1.213,1.213,1.213,1.213, 522
04/03/2020,13:44,1.212,1.212,1.212,1.212, 6748
04/03/2020,13:50,1.213,1.2135,1.213,1.2135, 8802
04/03/2020,13:50,1.2135,1.2135,1.2135,1.2135, 3445
04/03/2020,13:53,1.214,1.2145,1.214,1.2145, 1671
04/03/2020,13:54,1.215,1.217,1.215,1.217, 10755
04/03/2020,13:54,1.2167,1.2167,1.2167,1.2167, 1500
04/03/2020,13:55,1.2155,1.2155,1.214,1.214, 9377
04/03/2020,13:57,1.214,1.221,1.2125,1.22, 47347
04/03/2020,13:57,1.222,1.2225,1.222,1.2225, 1837
04/03/2020,13:59,1.2205,1.2205,1.2175,1.22, 58439
04/03/2020,14:01,1.2205,1.2205,1.2205,1.2205, 3316
04/03/2020,14:05,1.2235,1.2245,1.2235,1.2245, 6519
04/03/2020,14:06,1.2245,1.2245,1.221,1.221, 5680
04/03/2020,14:09,1.2205,1.2205,1.2205,1.2205, 778
04/03/2020,14:11,1.2205,1.2215,1.22,1.2215, 11463
04/03/2020,14:12,1.2205,1.2205,1.2205,1.2205, 1366
04/03/2020,14:13,1.22,1.224,1.22,1.224, 7799
04/03/2020,14:14,1.223,1.223,1.223,1.223, 2000
04/03/2020,14:15,1.223,1.223,1.2225,1.2225, 7564
04/03/2020,14:17,1.221,1.221,1.22,1.221, 16955
04/03/2020,14:17,1.2205,1.2205,1.22,1.2205, 10826
04/03/2020,14:18,1.2205,1.2205,1.2205,1.2205, 447
04/03/2020,14:20,1.2205,1.2215,1.2205,1.2215, 2234
04/03/2020,14:22,1.2205,1.222,1.22,1.222, 8110
04/03/2020,14:24,1.222,1.2235,1.22,1.2235, 17976
04/03/2020,14:26,1.223,1.223,1.223,1.223, 2861
04/03/2020,14:27,1.222,1.222,1.222,1.222, 779
04/03/2020,14:29,1.222,1.222,1.2215,1.222, 11423
04/03/2020,14:29,1.222,1.222,1.222,1.222, 2000
04/03/2020,14:31,1.22,1.22,1.217,1.2185, 21807
04/03/2020,14:32,1.2185,1.2195,1.2185,1.219, 14781
04/03/2020,14:33,1.2175,1.2175,1.2135,1.216, 27116
04/03/2020,14:34,1.217,1.217,1.217,1.217, 3636
04/03/2020,14:34,1.216,1.216,1.216,1.216, 2304
04/03/2020,14:36,1.2155,1.216,1.215,1.215, 8368
04/03/2020,14:37,1.2162,1.2162,1.2145,1.2145, 3278
04/03/2020,14:38,1.217,1.217,1.217,1.217, 1978
04/03/2020,14:39,1.215,1.215,1.215,1.215, 781
04/03/2020,14:41,1.2175,1.218,1.2175,1.218, 6636
04/03/2020,14:42,1.215,1.215,1.213,1.2145, 20994
04/03/2020,14:45,1.2145,1.2145,1.211,1.213, 8933
04/03/2020,14:45,1.214,1.2145,1.214,1.2145, 4373
04/03/2020,14:47,1.214,1.214,1.214,1.214, 2263
04/03/2020,14:47,1.214,1.2145,1.2135,1.2135, 6527
04/03/2020,14:48,1.2145,1.2145,1.2145,1.2145, 4035
04/03/2020,14:49,1.2137,1.2137,1.2137,1.2137, 51
04/03/2020,14:52,1.213,1.214,1.212,1.214, 13871
04/03/2020,14:55,1.212,1.2125,1.211,1.212, 11009
04/03/2020,14:56,1.213,1.213,1.2125,1.2125, 2427
04/03/2020,14:56,1.212,1.212,1.2115,1.2115, 6699
04/03/2020,14:57,1.2105,1.211,1.2095,1.2105, 14304
04/03/2020,14:58,1.211,1.211,1.211,1.211, 4083
04/03/2020,14:59,1.2105,1.2105,1.2105,1.2105, 155
04/03/2020,15:00,1.2095,1.2095,1.2095,1.2095, 8483
04/03/2020,15:02,1.209,1.209,1.207,1.208, 29789
04/03/2020,15:03,1.208,1.2085,1.208,1.2085, 6376
04/03/2020,15:04,1.2075,1.2075,1.2075,1.2075, 3325
04/03/2020,15:05,1.2065,1.2065,1.2065,1.2065, 910
04/03/2020,15:06,1.2065,1.2065,1.2065,1.2065, 3491
04/03/2020,15:06,1.2065,1.208,1.2055,1.208, 2650
04/03/2020,15:07,1.206,1.206,1.206,1.206, 779
04/03/2020,15:09,1.206,1.206,1.2045,1.2053, 8920
04/03/2020,15:10,1.2045,1.2045,1.204,1.204, 4432
04/03/2020,15:10,1.203,1.203,1.202,1.202, 13247
04/03/2020,15:13,1.2005,1.2005,1.2005,1.2005, 778
04/03/2020,15:15,1.2005,1.2055,1.2005,1.2035, 33152
04/03/2020,15:16,1.205,1.212,1.204,1.2085, 55814
04/03/2020,15:16,1.21,1.211,1.21,1.211, 16080
04/03/2020,15:18,1.209,1.2125,1.209,1.2125, 14373
04/03/2020,15:18,1.2115,1.2115,1.2115,1.2115, 5172
04/03/2020,15:25,1.211,1.211,1.2095,1.2095, 5704
04/03/2020,15:26,1.209,1.21,1.208,1.21, 17134
04/03/2020,15:27,1.2085,1.2085,1.2085,1.2085, 3087
04/03/2020,15:29,1.21,1.21,1.21,1.21, 577
04/03/2020,15:31,1.21,1.2105,1.21,1.2105, 7791
04/03/2020,15:32,1.212,1.212,1.2105,1.2105, 9997
04/03/2020,15:34,1.21,1.21,1.21,1.21, 6388
04/03/2020,15:37,1.209,1.211,1.209,1.21, 16576
04/03/2020,15:38,1.211,1.211,1.2095,1.2105, 19029
04/03/2020,15:41,1.211,1.212,1.211,1.2115, 18789
04/03/2020,15:43,1.213,1.214,1.2125,1.2135, 10940
04/03/2020,15:43,1.2135,1.2135,1.213,1.213, 7745
04/03/2020,15:45,1.2115,1.22,1.2095,1.22, 60622
04/03/2020,15:46,1.2195,1.22,1.217,1.2175, 8273
04/03/2020,15:46,1.218,1.22,1.218,1.22, 6340
04/03/2020,15:47,1.22,1.22,1.22,1.22, 2446
04/03/2020,15:52,1.218,1.218,1.218,1.218, 5133
04/03/2020,15:53,1.216,1.216,1.216,1.216, 2818
04/03/2020,15:55,1.2145,1.217,1.2145,1.217, 4586
04/03/2020,15:56,1.217,1.217,1.2145,1.2145, 20140
04/03/2020,15:57,1.216,1.216,1.216,1.216, 4462
04/03/2020,15:58,1.2162,1.2162,1.2162,1.2162, 1000
04/03/2020,15:58,1.217,1.217,1.215,1.2155, 7334
04/03/2020,16:01,1.216,1.2165,1.216,1.2165, 5360
04/03/2020,16:01,1.2165,1.2175,1.2165,1.2175, 5624
04/03/2020,16:02,1.218,1.218,1.218,1.218, 8729
04/03/2020,16:03,1.2175,1.2175,1.216,1.2165, 25783
04/03/2020,16:04,1.216,1.216,1.2135,1.2135, 11725
04/03/2020,16:05,1.213,1.213,1.2105,1.2105, 10245
04/03/2020,16:06,1.212,1.213,1.212,1.213, 10532
04/03/2020,16:08,1.2125,1.213,1.2115,1.212, 9680
04/03/2020,16:09,1.2115,1.2115,1.2085,1.2085, 9914
04/03/2020,16:10,1.2075,1.2075,1.207,1.207, 10768
04/03/2020,16:11,1.207,1.207,1.207,1.207, 1664
04/03/2020,16:13,1.208,1.208,1.2045,1.2045, 19172
04/03/2020,16:13,1.2045,1.2045,1.204,1.204, 8673
04/03/2020,16:14,1.207,1.207,1.205,1.2055, 23390
04/03/2020,16:15,1.205,1.2109,1.2005,1.2005, 50956
04/03/2020,16:17,1.2005,1.2005,1.2,1.2, 2090
04/03/2020,16:18,1.199,1.1995,1.199,1.199, 3982
04/03/2020,16:19,1.1985,1.1985,1.1985,1.1985, 4642
04/03/2020,16:20,1.201,1.2015,1.2,1.2015, 15046
04/03/2020,16:21,1.204,1.2105,1.2,1.2105, 85165
04/03/2020,16:23,1.208,1.21,1.2077,1.2095, 11895
04/03/2020,16:23,1.2092,1.2092,1.2092,1.2092, 2300
04/03/2020,16:25,1.209,1.2095,1.2085,1.209, 11878
04/03/2020,16:26,1.2105,1.211,1.2105,1.211, 7498
04/03/2020,16:27,1.2115,1.2115,1.2115,1.2115, 498
04/03/2020,16:28,1.2095,1.2095,1.2085,1.2095, 2603
04/03/2020,16:29,1.2085,1.211,1.2085,1.211, 11600
04/03/2020,16:31,1.2115,1.212,1.2115,1.212, 3999
04/03/2020,16:31,1.2125,1.2125,1.2125,1.2125, 7163
04/03/2020,16:33,1.2115,1.2115,1.208,1.208, 21506
04/03/2020,16:35,1.21,1.2115,1.21,1.2115, 16077
04/03/2020,16:36,1.212,1.214,1.212,1.214, 11577
04/03/2020,16:36,1.2135,1.2135,1.212,1.213, 7636
04/03/2020,16:38,1.2128,1.2128,1.2128,1.2128, 325
04/03/2020,16:39,1.2135,1.2135,1.212,1.2125, 4296
04/03/2020,16:39,1.2115,1.212,1.21,1.21, 18019
04/03/2020,16:40,1.211,1.213,1.211,1.213, 22480
04/03/2020,16:42,1.2125,1.2125,1.2115,1.2125, 8379
04/03/2020,16:42,1.2125,1.2125,1.2125,1.2125, 939
04/03/2020,16:43,1.2105,1.211,1.21,1.2105, 16150
04/03/2020,16:44,1.2095,1.2095,1.2095,1.2095, 780
04/03/2020,16:45,1.211,1.211,1.2105,1.2105, 4326
04/03/2020,16:45,1.2115,1.2115,1.2105,1.2105, 3310
04/03/2020,16:46,1.2105,1.2115,1.2105,1.2115, 6664
04/03/2020,16:48,1.2105,1.2105,1.209,1.209, 8290
04/03/2020,16:48,1.2105,1.211,1.2105,1.211, 4438
04/03/2020,16:50,1.2102,1.211,1.2095,1.211, 22350
04/03/2020,16:51,1.211,1.211,1.211,1.211, 1350
04/03/2020,16:52,1.2105,1.2105,1.207,1.207, 24536
04/03/2020,16:53,1.2075,1.208,1.207,1.207, 7866
04/03/2020,16:55,1.207,1.207,1.205,1.205, 20048
04/03/2020,16:55,1.207,1.207,1.205,1.206, 3568
04/03/2020,16:56,1.2045,1.206,1.2035,1.2035, 15581
04/03/2020,16:57,1.2045,1.205,1.202,1.202, 45989
04/03/2020,16:58,1.201,1.201,1.201,1.201, 1258
04/03/2020,17:00,1.2005,1.2005,1.1995,1.2, 14688
04/03/2020,17:01,1.199,1.2005,1.1985,1.2, 19301
04/03/2020,17:02,1.199,1.2,1.199,1.2, 4053
04/03/2020,17:02,1.2005,1.2005,1.2005,1.2005, 2751
04/03/2020,17:04,1.2005,1.2005,1.195,1.195, 18867
04/03/2020,17:06,1.1945,1.198,1.1925,1.197, 31903
04/03/2020,17:07,1.198,1.1985,1.197,1.1985, 11234
04/03/2020,17:07,1.198,1.2065,1.198,1.2065, 188825
04/03/2020,17:09,1.207,1.2085,1.205,1.208, 60466
04/03/2020,17:10,1.2085,1.21,1.2085,1.21, 16829
04/03/2020,17:11,1.2095,1.2105,1.209,1.2105, 45895
04/03/2020,17:12,1.211,1.213,1.21,1.2105, 25194
04/03/2020,17:14,1.2105,1.212,1.206,1.208, 54448
04/03/2020,17:15,1.21,1.2125,1.21,1.2125, 23764
04/03/2020,17:16,1.2125,1.2125,1.2105,1.2105, 14222
04/03/2020,17:17,1.2115,1.2115,1.21,1.21, 16210
04/03/2020,17:20,1.21,1.211,1.206,1.2105, 150951
04/03/2020,17:20,1.207,1.21,1.207,1.21, 35307
04/03/2020,17:21,1.2125,1.2145,1.2105,1.212, 44237
04/03/2020,17:22,1.211,1.2115,1.21,1.211, 26800
04/03/2020,17:23,1.21,1.214,1.2085,1.214, 29731
04/03/2020,17:24,1.2135,1.2135,1.2065,1.2065, 100483
04/03/2020,17:25,1.207,1.208,1.204,1.204, 23927
04/03/2020,17:26,1.204,1.204,1.202,1.202, 3346
04/03/2020,17:28,1.202,1.202,1.201,1.202, 25696
04/03/2020,17:30,1.201,1.2055,1.197,1.2055, 70824
04/03/2020,17:30,1.206,1.217,1.201,1.201, 207054
04/03/2020,17:30,1.1985,1.1985,1.1975,1.1975, 2320
04/03/2020,17:36,1.201,1.201,1.201,1.201, 2610911
04/06/2020,09:01,1.2195,1.2311,1.2195,1.2311, 2683
04/06/2020,09:02,1.2365,1.24,1.2355,1.236, 15963
04/06/2020,09:03,1.245,1.245,1.236,1.2385, 11183
04/06/2020,09:04,1.2495,1.25,1.2495,1.2495, 768
04/06/2020,09:05,1.2655,1.2655,1.2655,1.2655, 84
04/06/2020,09:07,1.256,1.264,1.256,1.264, 10166
04/06/2020,09:10,1.268,1.268,1.268,1.268, 819
04/06/2020,09:12,1.2685,1.269,1.2685,1.2685, 4024
04/06/2020,09:13,1.275,1.275,1.275,1.275, 12
04/06/2020,09:14,1.275,1.2765,1.2705,1.2705, 21989
04/06/2020,09:15,1.2715,1.2715,1.271,1.271, 3550
04/06/2020,09:16,1.271,1.271,1.265,1.2655, 29688
04/06/2020,09:17,1.262,1.2675,1.2605,1.2675, 25913
04/06/2020,09:18,1.267,1.2675,1.2645,1.2675, 6090
04/06/2020,09:19,1.271,1.272,1.271,1.272, 2569
04/06/2020,09:20,1.274,1.274,1.274,1.274, 850
04/06/2020,09:21,1.269,1.27,1.269,1.2695, 39000
04/06/2020,09:22,1.2705,1.2705,1.268,1.268, 15375
04/06/2020,09:22,1.269,1.2705,1.2685,1.2685, 7501
04/06/2020,09:29,1.2725,1.273,1.2725,1.273, 2572
04/06/2020,09:31,1.2715,1.272,1.2715,1.272, 3096
04/06/2020,09:32,1.272,1.272,1.2695,1.272, 9975
04/06/2020,09:33,1.2695,1.273,1.2695,1.273, 16912
04/06/2020,09:34,1.272,1.272,1.266,1.266, 9469
04/06/2020,09:35,1.2645,1.2645,1.264,1.264, 5232
04/06/2020,09:36,1.2645,1.266,1.2635,1.266, 10279
04/06/2020,09:37,1.266,1.27,1.266,1.269, 9267
04/06/2020,09:38,1.2675,1.269,1.2618,1.269, 38856
04/06/2020,09:39,1.2662,1.2662,1.2662,1.2662, 418
04/06/2020,09:43,1.2615,1.2635,1.2595,1.2595, 20139
04/06/2020,09:44,1.2595,1.2595,1.2595,1.2595, 2620
04/06/2020,09:44,1.26,1.2605,1.26,1.2605, 1363
04/06/2020,09:46,1.2615,1.2635,1.2615,1.263, 7781
04/06/2020,09:47,1.2637,1.2637,1.2637,1.2637, 1231
04/06/2020,09:48,1.2605,1.2605,1.254,1.254, 13493
04/06/2020,09:53,1.2533,1.2533,1.2533,1.2533, 1000
04/06/2020,09:54,1.253,1.253,1.253,1.253, 1000
04/06/2020,09:56,1.254,1.254,1.254,1.254, 200
04/06/2020,09:56,1.2525,1.2525,1.2515,1.2515, 4686
04/06/2020,09:58,1.2505,1.2505,1.2495,1.2495, 8045
04/06/2020,10:00,1.2485,1.2485,1.2475,1.2475, 5533
04/06/2020,10:01,1.2465,1.2465,1.2465,1.2465, 6186
04/06/2020,10:04,1.247,1.247,1.247,1.247, 5408
04/06/2020,10:05,1.2445,1.2445,1.2445,1.2445, 2394
04/06/2020,10:05,1.244,1.244,1.244,1.244, 4596
04/06/2020,10:09,1.2455,1.2475,1.2455,1.246, 7530
04/06/2020,10:10,1.248,1.2485,1.2477,1.2477, 11329
04/06/2020,10:11,1.248,1.248,1.248,1.248, 1415
04/06/2020,10:12,1.247,1.247,1.246,1.246, 2006
04/06/2020,10:13,1.246,1.246,1.246,1.246, 2327
04/06/2020,10:14,1.2455,1.2455,1.2455,1.2455, 2532
04/06/2020,10:14,1.2445,1.2445,1.2445,1.2445, 1841
04/06/2020,10:15,1.2455,1.2465,1.2455,1.2465, 2423
04/06/2020,10:17,1.2455,1.2485,1.2455,1.247, 5455
04/06/2020,10:21,1.2465,1.2465,1.246,1.246, 3098
04/06/2020,10:22,1.244,1.244,1.244,1.244, 2165
04/06/2020,10:24,1.2431,1.2438,1.2431,1.2438, 2644
04/06/2020,10:25,1.245,1.245,1.245,1.245, 2447
04/06/2020,10:27,1.244,1.2445,1.2425,1.2425, 13081
04/06/2020,10:29,1.2415,1.2415,1.2375,1.238, 17893
04/06/2020,10:31,1.239,1.241,1.239,1.241, 11598
04/06/2020,10:31,1.241,1.241,1.241,1.241, 1
04/06/2020,10:33,1.2405,1.2405,1.2385,1.2385, 7776
04/06/2020,10:35,1.237,1.237,1.237,1.237, 71
04/06/2020,10:36,1.237,1.237,1.237,1.237, 144
04/06/2020,10:37,1.2365,1.2365,1.2365,1.2365, 2372
04/06/2020,10:38,1.2355,1.2355,1.2355,1.2355, 236
04/06/2020,10:39,1.2345,1.2345,1.2345,1.2345, 219
04/06/2020,10:41,1.237,1.237,1.237,1.237, 3312
04/06/2020,10:42,1.239,1.24,1.239,1.24, 6428
04/06/2020,10:44,1.2405,1.2405,1.2405,1.2405, 1713
04/06/2020,10:47,1.242,1.242,1.242,1.242, 1804
04/06/2020,10:48,1.2395,1.2395,1.2395,1.2395, 694
04/06/2020,10:49,1.2385,1.2395,1.237,1.239, 7857
04/06/2020,10:51,1.239,1.2405,1.239,1.2405, 5083
04/06/2020,10:55,1.242,1.242,1.242,1.242, 1657
04/06/2020,10:56,1.242,1.242,1.242,1.242, 409
04/06/2020,10:58,1.2425,1.2445,1.2425,1.2445, 3804
04/06/2020,10:59,1.246,1.246,1.246,1.246, 230
04/06/2020,11:00,1.2445,1.2445,1.2435,1.244, 15720
04/06/2020,11:02,1.2455,1.248,1.2445,1.248, 11888
04/06/2020,11:04,1.2475,1.2475,1.247,1.247, 2068
04/06/2020,11:06,1.2465,1.2475,1.2465,1.2465, 6349
04/06/2020,11:08,1.247,1.247,1.247,1.247, 1312
04/06/2020,11:11,1.2465,1.2465,1.2415,1.2415, 10678
04/06/2020,11:12,1.241,1.2435,1.241,1.2435, 19586
04/06/2020,11:13,1.242,1.2425,1.242,1.2425, 6043
04/06/2020,11:14,1.243,1.243,1.2425,1.2425, 4206
04/06/2020,11:18,1.244,1.2445,1.244,1.2445, 1383
04/06/2020,11:19,1.247,1.247,1.246,1.246, 1543
04/06/2020,11:21,1.249,1.249,1.249,1.249, 3171
04/06/2020,11:22,1.2495,1.25,1.2495,1.25, 2981
04/06/2020,11:25,1.25,1.252,1.25,1.252, 13050
04/06/2020,11:27,1.2505,1.2525,1.2505,1.2525, 6463
04/06/2020,11:29,1.252,1.2545,1.2515,1.2545, 11382
04/06/2020,11:30,1.2525,1.253,1.2515,1.2515, 8913
04/06/2020,11:31,1.2515,1.2515,1.249,1.2515, 14273
04/06/2020,11:32,1.253,1.253,1.253,1.253, 1145
04/06/2020,11:34,1.254,1.254,1.254,1.254, 645
04/06/2020,11:35,1.2535,1.255,1.253,1.255, 6180
04/06/2020,11:37,1.256,1.256,1.255,1.255, 2104
04/06/2020,11:38,1.2565,1.258,1.256,1.256, 7335
04/06/2020,11:40,1.256,1.256,1.2545,1.2545, 7551
04/06/2020,11:41,1.253,1.2535,1.253,1.2535, 5712
04/06/2020,11:41,1.255,1.255,1.255,1.255, 1593
04/06/2020,11:44,1.255,1.257,1.255,1.257, 18930
04/06/2020,11:47,1.2575,1.258,1.2575,1.258, 1926
04/06/2020,11:48,1.259,1.26,1.258,1.259, 12147
04/06/2020,11:49,1.2575,1.259,1.257,1.259, 9362
04/06/2020,11:53,1.26,1.262,1.26,1.2615, 7570
04/06/2020,11:54,1.2605,1.2605,1.2595,1.26, 7137
04/06/2020,11:55,1.2575,1.259,1.2575,1.259, 3633
04/06/2020,11:57,1.26,1.2605,1.26,1.2605, 3399
04/06/2020,11:59,1.2615,1.2615,1.2615,1.2615, 3164
04/06/2020,12:00,1.2595,1.2602,1.2595,1.2602, 1024
04/06/2020,12:02,1.2615,1.2615,1.2615,1.2615, 1327
04/06/2020,12:03,1.262,1.263,1.262,1.2625, 6293
04/06/2020,12:04,1.2625,1.2625,1.2625,1.2625, 2282
04/06/2020,12:08,1.262,1.262,1.2605,1.262, 9422
04/06/2020,12:09,1.263,1.263,1.263,1.263, 350
04/06/2020,12:10,1.262,1.262,1.259,1.259, 8633
04/06/2020,12:11,1.259,1.259,1.2556,1.2565, 9163
04/06/2020,12:11,1.256,1.256,1.256,1.256, 356
04/06/2020,12:14,1.2585,1.2585,1.2585,1.2585, 2184
04/06/2020,12:15,1.258,1.258,1.258,1.258, 2717
04/06/2020,12:17,1.2595,1.2595,1.2595,1.2595, 275
04/06/2020,12:18,1.2602,1.2602,1.2602,1.2602, 1250
04/06/2020,12:19,1.2595,1.26,1.2585,1.2595, 6418
04/06/2020,12:21,1.2575,1.258,1.2575,1.2575, 5886
04/06/2020,12:23,1.258,1.258,1.258,1.258, 4573
04/06/2020,12:24,1.2605,1.2605,1.2605,1.2605, 1801
04/06/2020,12:28,1.2595,1.2595,1.258,1.258, 9126
04/06/2020,12:31,1.2585,1.2585,1.2585,1.2585, 1
04/06/2020,12:33,1.26,1.26,1.26,1.26, 1804
04/06/2020,12:35,1.2585,1.2585,1.2585,1.2585, 2044
04/06/2020,12:38,1.2585,1.2585,1.2585,1.2585, 1644
04/06/2020,12:39,1.2585,1.2585,1.2565,1.258, 17270
04/06/2020,12:39,1.2575,1.2575,1.2575,1.2575, 2904
04/06/2020,12:42,1.258,1.2585,1.2565,1.2565, 9680
04/06/2020,12:43,1.258,1.2585,1.258,1.2585, 3240
04/06/2020,12:45,1.2585,1.2585,1.2585,1.2585, 1415
04/06/2020,12:46,1.2592,1.2592,1.2592,1.2592, 650
04/06/2020,12:48,1.26,1.2605,1.26,1.2605, 2165
04/06/2020,12:49,1.261,1.262,1.261,1.262, 2905
04/06/2020,12:50,1.261,1.262,1.261,1.262, 4656
04/06/2020,12:51,1.262,1.2655,1.262,1.2635, 12711
04/06/2020,12:51,1.263,1.263,1.2605,1.261, 4513
04/06/2020,12:54,1.2595,1.2595,1.2585,1.259, 4786
04/06/2020,12:55,1.26,1.2605,1.26,1.2605, 2922
04/06/2020,12:56,1.2605,1.2605,1.2605,1.2605, 8214
04/06/2020,12:57,1.257,1.26,1.257,1.2585, 8689
04/06/2020,12:58,1.254,1.257,1.252,1.254, 21650
04/06/2020,13:00,1.2555,1.2555,1.2555,1.2555, 2583
04/06/2020,13:03,1.259,1.259,1.2565,1.2565, 9057
04/06/2020,13:04,1.255,1.255,1.255,1.255, 314
04/06/2020,13:07,1.2545,1.2545,1.2525,1.2525, 6046
04/06/2020,13:09,1.254,1.254,1.254,1.254, 3575
04/06/2020,13:11,1.254,1.254,1.254,1.254, 110
04/06/2020,13:12,1.253,1.253,1.2515,1.2515, 3461
04/06/2020,13:12,1.2515,1.2535,1.2515,1.2535, 7494
04/06/2020,13:15,1.2545,1.2545,1.2545,1.2545, 1831
04/06/2020,13:17,1.254,1.254,1.2535,1.2535, 1407
04/06/2020,13:25,1.2535,1.256,1.2535,1.256, 4695
04/06/2020,13:27,1.255,1.255,1.254,1.2545, 8176
04/06/2020,13:28,1.2565,1.257,1.2565,1.2565, 2235
04/06/2020,13:31,1.257,1.257,1.257,1.257, 311
04/06/2020,13:36,1.258,1.261,1.2575,1.261, 8773
04/06/2020,13:37,1.2602,1.2602,1.259,1.259, 2626
04/06/2020,13:38,1.2615,1.2615,1.26,1.26, 6990
04/06/2020,13:41,1.262,1.262,1.262,1.262, 1500
04/06/2020,13:43,1.263,1.2635,1.263,1.2635, 2682
04/06/2020,13:45,1.2635,1.2635,1.2625,1.2635, 7776
04/06/2020,13:46,1.262,1.262,1.261,1.261, 8312
04/06/2020,13:46,1.2595,1.2605,1.2595,1.2595, 9435
04/06/2020,13:47,1.261,1.2615,1.261,1.261, 3348
04/06/2020,13:51,1.26,1.26,1.259,1.259, 3690
04/06/2020,13:53,1.26,1.2605,1.26,1.2605, 2030
04/06/2020,13:54,1.2605,1.2605,1.2605,1.2605, 622
04/06/2020,14:01,1.26,1.26,1.2585,1.26, 7889
04/06/2020,14:05,1.259,1.259,1.258,1.258, 6228
04/06/2020,14:10,1.2585,1.2585,1.2585,1.2585, 1186
04/06/2020,14:13,1.259,1.2595,1.259,1.2595, 2666
04/06/2020,14:15,1.2615,1.2615,1.2615,1.2615, 272
04/06/2020,14:19,1.262,1.262,1.2615,1.2615, 788
04/06/2020,14:20,1.261,1.261,1.261,1.261, 356
04/06/2020,14:23,1.2615,1.262,1.2615,1.262, 1874
04/06/2020,14:27,1.263,1.265,1.263,1.2645, 26345
04/06/2020,14:28,1.2655,1.2655,1.2655,1.2655, 2120
04/06/2020,14:29,1.2645,1.2645,1.2645,1.2645, 231
04/06/2020,14:31,1.2635,1.264,1.2635,1.264, 6008
04/06/2020,14:32,1.2645,1.265,1.2645,1.265, 6177
04/06/2020,14:33,1.264,1.264,1.264,1.264, 217
04/06/2020,14:35,1.2645,1.2645,1.2645,1.2645, 226
04/06/2020,14:39,1.266,1.2665,1.266,1.2665, 2220
04/06/2020,14:41,1.2673,1.2673,1.2673,1.2673, 2
04/06/2020,14:42,1.267,1.267,1.266,1.266, 3872
04/06/2020,14:43,1.2665,1.267,1.2665,1.267, 4091
04/06/2020,14:44,1.268,1.2695,1.265,1.265, 21190
04/06/2020,14:45,1.2655,1.266,1.2655,1.266, 6181
04/06/2020,14:46,1.2655,1.2655,1.2645,1.2645, 5030
04/06/2020,14:48,1.2655,1.2655,1.2655,1.2655, 1883
04/06/2020,14:49,1.266,1.266,1.266,1.266, 3680
04/06/2020,14:53,1.265,1.265,1.265,1.265, 3558
04/06/2020,14:54,1.2645,1.2645,1.2635,1.264, 14387
04/06/2020,14:57,1.2625,1.2637,1.2625,1.2637, 11728
04/06/2020,15:01,1.2645,1.2645,1.264,1.264, 4435
04/06/2020,15:03,1.2637,1.2637,1.2637,1.2637, 1000
04/06/2020,15:06,1.263,1.263,1.263,1.263, 108
04/06/2020,15:11,1.2625,1.2625,1.2625,1.2625, 6262
04/06/2020,15:13,1.262,1.262,1.262,1.262, 6716
04/06/2020,15:16,1.2625,1.2635,1.2625,1.2635, 5983
04/06/2020,15:17,1.2625,1.263,1.2625,1.2625, 30121
04/06/2020,15:21,1.2635,1.264,1.2635,1.2635, 5645
04/06/2020,15:21,1.264,1.264,1.264,1.264, 6989
04/06/2020,15:23,1.2635,1.2638,1.2635,1.2638, 17915
04/06/2020,15:24,1.263,1.263,1.2615,1.2615, 10214
04/06/2020,15:26,1.261,1.2615,1.261,1.2615, 3505
04/06/2020,15:26,1.262,1.262,1.262,1.262, 1250
04/06/2020,15:28,1.262,1.2635,1.262,1.2635, 5186
04/06/2020,15:29,1.264,1.264,1.264,1.264, 14
04/06/2020,15:30,1.2635,1.2635,1.263,1.263, 3170
04/06/2020,15:31,1.264,1.265,1.263,1.263, 5829
04/06/2020,15:32,1.263,1.263,1.263,1.263, 1662
04/06/2020,15:33,1.2625,1.2625,1.262,1.2625, 4914
04/06/2020,15:34,1.2628,1.2635,1.262,1.262, 7962
04/06/2020,15:35,1.262,1.262,1.262,1.262, 69
04/06/2020,15:36,1.2615,1.262,1.2615,1.2615, 6828
04/06/2020,15:39,1.263,1.263,1.2625,1.2625, 6490
04/06/2020,15:39,1.263,1.263,1.263,1.263, 2547
04/06/2020,15:41,1.2635,1.2635,1.263,1.263, 6370
04/06/2020,15:44,1.2645,1.2645,1.2645,1.2645, 1613
04/06/2020,15:45,1.2645,1.2645,1.264,1.264, 6914
04/06/2020,15:46,1.2655,1.2655,1.265,1.2655, 3517
04/06/2020,15:47,1.2665,1.2665,1.2665,1.2665, 4070
04/06/2020,15:49,1.268,1.268,1.2678,1.2678, 5527
04/06/2020,15:50,1.268,1.268,1.268,1.268, 3000
04/06/2020,15:52,1.269,1.2695,1.269,1.2695, 2177
04/06/2020,15:53,1.2691,1.2691,1.2691,1.2691, 4300
04/06/2020,15:53,1.2695,1.2695,1.2695,1.2695, 1303
04/06/2020,15:54,1.27,1.27,1.2685,1.2685, 8946
04/06/2020,15:58,1.268,1.268,1.2665,1.2665, 21309
04/06/2020,15:58,1.267,1.268,1.267,1.2675, 8441
04/06/2020,15:59,1.2675,1.2675,1.267,1.2675, 2538
04/06/2020,16:00,1.2655,1.266,1.2645,1.2645, 7046
04/06/2020,16:00,1.2645,1.2645,1.2645,1.2645, 98
04/06/2020,16:01,1.2645,1.265,1.2635,1.265, 16096
04/06/2020,16:02,1.2655,1.2655,1.2655,1.2655, 3915
04/06/2020,16:02,1.2665,1.2665,1.2665,1.2665, 2341
04/06/2020,16:04,1.2655,1.267,1.2655,1.267, 10245
04/06/2020,16:05,1.2655,1.266,1.2645,1.2645, 6178
04/06/2020,16:06,1.2645,1.2655,1.264,1.264, 12865
04/06/2020,16:07,1.2638,1.264,1.2635,1.264, 13497
04/06/2020,16:08,1.2629,1.2629,1.2629,1.2629, 6603
04/06/2020,16:08,1.2625,1.2635,1.2625,1.2635, 9818
04/06/2020,16:09,1.2635,1.2635,1.2635,1.2635, 2654
04/06/2020,16:12,1.264,1.2655,1.262,1.262, 16915
04/06/2020,16:12,1.2635,1.2635,1.2635,1.2635, 5360
04/06/2020,16:13,1.2635,1.2635,1.263,1.263, 3684
04/06/2020,16:17,1.2625,1.2625,1.261,1.2625, 12130
04/06/2020,16:18,1.2615,1.262,1.2615,1.262, 8467
04/06/2020,16:20,1.263,1.265,1.263,1.265, 16469
04/06/2020,16:22,1.264,1.264,1.2635,1.2635, 3546
04/06/2020,16:25,1.2625,1.2625,1.2625,1.2625, 4694
04/06/2020,16:26,1.2625,1.2625,1.262,1.262, 15729
04/06/2020,16:27,1.262,1.262,1.2605,1.2605, 5216
04/06/2020,16:29,1.261,1.261,1.2605,1.2605, 7947
04/06/2020,16:30,1.26,1.261,1.26,1.261, 3989
04/06/2020,16:31,1.259,1.2595,1.258,1.258, 7892
04/06/2020,16:32,1.2575,1.2575,1.2575,1.2575, 731
04/06/2020,16:33,1.2577,1.2577,1.2575,1.2575, 1190
04/06/2020,16:33,1.2585,1.259,1.258,1.259, 7490
04/06/2020,16:34,1.2585,1.2585,1.2585,1.2585, 1617
04/06/2020,16:35,1.259,1.259,1.259,1.259, 1866
04/06/2020,16:36,1.2595,1.26,1.2595,1.26, 2922
04/06/2020,16:36,1.2595,1.2595,1.2595,1.2595, 5969
04/06/2020,16:37,1.259,1.259,1.2575,1.2575, 15564
04/06/2020,16:38,1.258,1.258,1.258,1.258, 795
04/06/2020,16:40,1.259,1.2595,1.259,1.2595, 3574
04/06/2020,16:40,1.26,1.26,1.26,1.26, 1059
04/06/2020,16:41,1.2595,1.2595,1.2595,1.2595, 6799
04/06/2020,16:43,1.26,1.261,1.259,1.259, 13582
04/06/2020,16:44,1.2605,1.2605,1.2605,1.2605, 1966
04/06/2020,16:47,1.2615,1.262,1.2615,1.262, 10379
04/06/2020,16:47,1.2615,1.2615,1.261,1.2615, 8625
04/06/2020,16:49,1.2615,1.2615,1.261,1.2615, 9443
04/06/2020,16:51,1.2615,1.262,1.2615,1.262, 2243
04/06/2020,16:51,1.2625,1.2635,1.262,1.2633, 9856
04/06/2020,16:53,1.2635,1.2635,1.2615,1.2625, 11440
04/06/2020,16:54,1.2635,1.2635,1.262,1.2625, 7883
04/06/2020,16:56,1.263,1.263,1.263,1.263, 1175
04/06/2020,16:58,1.263,1.265,1.263,1.265, 9883
04/06/2020,16:58,1.2645,1.2645,1.2635,1.2635, 5590
04/06/2020,16:59,1.264,1.264,1.264,1.264, 5445
04/06/2020,17:01,1.2645,1.265,1.2645,1.265, 4717
04/06/2020,17:01,1.2645,1.2645,1.2645,1.2645, 11754
04/06/2020,17:02,1.2635,1.2635,1.2635,1.2635, 9007
04/06/2020,17:03,1.264,1.2645,1.264,1.2645, 6838
04/06/2020,17:03,1.2643,1.265,1.2643,1.265, 1728
04/06/2020,17:05,1.2655,1.2665,1.2645,1.2655, 18954
04/06/2020,17:05,1.2655,1.2655,1.2655,1.2655, 1578
04/06/2020,17:07,1.2665,1.2665,1.265,1.265, 8741
04/06/2020,17:08,1.266,1.266,1.266,1.266, 6970
04/06/2020,17:09,1.2665,1.2685,1.2665,1.268, 9381
04/06/2020,17:11,1.2665,1.2665,1.266,1.266, 19859
04/06/2020,17:12,1.2665,1.2665,1.2665,1.2665, 3717
04/06/2020,17:12,1.267,1.2675,1.267,1.2675, 4859
04/06/2020,17:15,1.269,1.27,1.269,1.27, 8848
04/06/2020,17:16,1.269,1.269,1.268,1.269, 30998
04/06/2020,17:17,1.2695,1.2705,1.269,1.269, 23250
04/06/2020,17:19,1.266,1.2685,1.2655,1.266, 108781
04/06/2020,17:21,1.267,1.267,1.2665,1.2665, 8374
04/06/2020,17:21,1.2665,1.2665,1.266,1.2664, 12866
04/06/2020,17:24,1.2665,1.268,1.2665,1.268, 8033
04/06/2020,17:25,1.2675,1.2675,1.2665,1.2665, 36421
04/06/2020,17:27,1.267,1.267,1.266,1.266, 6640
04/06/2020,17:28,1.266,1.266,1.264,1.264, 8390
04/06/2020,17:30,1.2635,1.2635,1.262,1.263, 17511
04/06/2020,17:30,1.2635,1.2645,1.261,1.2635, 11400
04/06/2020,17:36,1.2575,1.2575,1.2575,1.2575, 1037885
04/07/2020,09:01,1.267,1.267,1.267,1.267, 3913
04/07/2020,09:02,1.257,1.2625,1.257,1.2625, 2526
04/07/2020,09:02,1.264,1.264,1.264,1.264, 309
04/07/2020,09:04,1.285,1.285,1.273,1.274, 26691
04/07/2020,09:05,1.2735,1.2755,1.272,1.2725, 8747
04/07/2020,09:06,1.2785,1.283,1.273,1.2775, 15244
04/07/2020,09:07,1.282,1.282,1.275,1.2755, 7514
04/07/2020,09:08,1.275,1.281,1.2745,1.2745, 18625
04/07/2020,09:09,1.273,1.281,1.272,1.273, 32173
04/07/2020,09:10,1.2775,1.28,1.275,1.276, 7901
04/07/2020,09:11,1.278,1.2795,1.2745,1.276, 17707
04/07/2020,09:12,1.28,1.281,1.2755,1.2775, 17596
04/07/2020,09:13,1.2765,1.2765,1.275,1.275, 5481
04/07/2020,09:14,1.274,1.2745,1.2725,1.274, 7150
04/07/2020,09:16,1.275,1.275,1.275,1.275, 1088
04/07/2020,09:17,1.2765,1.2765,1.276,1.276, 3523
04/07/2020,09:18,1.2775,1.2775,1.275,1.2765, 4362
04/07/2020,09:19,1.2765,1.2765,1.2745,1.2745, 6091
04/07/2020,09:21,1.279,1.282,1.2765,1.2775, 28697
04/07/2020,09:22,1.2765,1.282,1.2765,1.282, 22335
04/07/2020,09:23,1.2825,1.2825,1.281,1.281, 4470
04/07/2020,09:24,1.28,1.282,1.2793,1.282, 6301
04/07/2020,09:25,1.2815,1.2815,1.2765,1.2765, 5437
04/07/2020,09:27,1.28,1.28,1.2765,1.2765, 3160
04/07/2020,09:30,1.2775,1.2775,1.2775,1.2775, 2000
04/07/2020,09:30,1.2735,1.276,1.273,1.276, 3997
04/07/2020,09:31,1.268,1.268,1.268,1.268, 1627
04/07/2020,09:33,1.268,1.268,1.2674,1.2674, 11638
04/07/2020,09:34,1.2675,1.2675,1.2675,1.2675, 7477
04/07/2020,09:37,1.2663,1.2663,1.264,1.264, 3335
04/07/2020,09:38,1.264,1.264,1.262,1.262, 8625
04/07/2020,09:38,1.264,1.264,1.264,1.264, 1979
04/07/2020,09:40,1.261,1.261,1.261,1.261, 4885
04/07/2020,09:42,1.263,1.269,1.263,1.269, 15157
04/07/2020,09:44,1.271,1.2715,1.271,1.2715, 6010
04/07/2020,09:48,1.275,1.278,1.2745,1.2745, 8017
04/07/2020,09:49,1.277,1.2775,1.276,1.2775, 8997
04/07/2020,09:52,1.276,1.276,1.276,1.276, 1051
04/07/2020,09:53,1.2795,1.28,1.277,1.277, 25059
04/07/2020,09:55,1.276,1.276,1.275,1.275, 12290
04/07/2020,09:56,1.2758,1.2758,1.2758,1.2758, 450
04/07/2020,09:57,1.2735,1.2735,1.2735,1.2735, 331
04/07/2020,09:58,1.276,1.276,1.2735,1.2735, 1885
04/07/2020,10:00,1.2715,1.273,1.2715,1.2715, 1566
04/07/2020,10:02,1.273,1.2735,1.273,1.273, 5920
04/07/2020,10:03,1.273,1.273,1.273,1.273, 5740
04/07/2020,10:04,1.2745,1.2745,1.27,1.2735, 16678
04/07/2020,10:06,1.276,1.278,1.276,1.278, 4159
04/07/2020,10:07,1.2775,1.28,1.277,1.2795, 26216
04/07/2020,10:08,1.2775,1.2775,1.2775,1.2775, 3187
04/07/2020,10:09,1.276,1.276,1.276,1.276, 8273
04/07/2020,10:11,1.2785,1.2805,1.278,1.278, 21745
04/07/2020,10:12,1.279,1.28,1.279,1.2795, 5196
04/07/2020,10:13,1.2785,1.281,1.2785,1.279, 13403
04/07/2020,10:14,1.2775,1.2775,1.2775,1.2775, 2337
04/07/2020,10:19,1.277,1.2775,1.2755,1.277, 15674
04/07/2020,10:19,1.2765,1.2765,1.2755,1.276, 5879
04/07/2020,10:21,1.275,1.276,1.274,1.2745, 8582
04/07/2020,10:22,1.2735,1.2735,1.2735,1.2735, 3471
04/07/2020,10:23,1.2755,1.28,1.2755,1.28, 12379
04/07/2020,10:24,1.2785,1.2785,1.2785,1.2785, 5562
04/07/2020,10:27,1.2775,1.2775,1.277,1.277, 7314
04/07/2020,10:27,1.2755,1.2755,1.2755,1.2755, 762
04/07/2020,10:28,1.276,1.276,1.276,1.276, 1481
04/07/2020,10:30,1.2755,1.2755,1.2755,1.2755, 3707
04/07/2020,10:31,1.2755,1.2755,1.275,1.275, 4200
04/07/2020,10:32,1.2735,1.274,1.2735,1.274, 1490
04/07/2020,10:34,1.2725,1.2725,1.2658,1.2658, 51492
04/07/2020,10:37,1.2688,1.2688,1.2688,1.2688, 1702
04/07/2020,10:39,1.267,1.267,1.267,1.267, 4700
04/07/2020,10:41,1.2665,1.2665,1.2665,1.2665, 821
04/07/2020,10:45,1.266,1.2665,1.266,1.2665, 4718
04/07/2020,10:46,1.2675,1.2675,1.2675,1.2675, 197
04/07/2020,10:48,1.266,1.266,1.265,1.2655, 5462
04/07/2020,10:49,1.265,1.2655,1.2638,1.2638, 9880
04/07/2020,10:51,1.269,1.269,1.266,1.2668, 18437
04/07/2020,10:53,1.266,1.266,1.266,1.266, 3955
04/07/2020,10:54,1.264,1.2645,1.2625,1.2625, 12150
04/07/2020,10:55,1.264,1.264,1.264,1.264, 4058
04/07/2020,10:56,1.263,1.2645,1.2625,1.2645, 15488
04/07/2020,10:58,1.2665,1.2665,1.2665,1.2665, 611
04/07/2020,11:00,1.265,1.265,1.265,1.265, 2904
04/07/2020,11:02,1.2665,1.2665,1.265,1.2655, 6305
04/07/2020,11:04,1.2657,1.2657,1.2657,1.2657, 5000
04/07/2020,11:06,1.2621,1.2621,1.2621,1.2621, 40000
04/07/2020,11:06,1.264,1.266,1.263,1.266, 51435
04/07/2020,11:10,1.263,1.263,1.261,1.261, 7479
04/07/2020,11:11,1.259,1.259,1.259,1.259, 2328
04/07/2020,11:12,1.259,1.259,1.259,1.259, 3330
04/07/2020,11:14,1.258,1.258,1.256,1.256, 7850
04/07/2020,11:15,1.257,1.2575,1.256,1.257, 8492
04/07/2020,11:17,1.256,1.259,1.256,1.259, 4284
04/07/2020,11:19,1.2575,1.259,1.2575,1.2575, 3153
04/07/2020,11:20,1.256,1.256,1.2555,1.256, 7805
04/07/2020,11:20,1.2575,1.2595,1.2575,1.2595, 3412
04/07/2020,11:23,1.259,1.259,1.259,1.259, 238
04/07/2020,11:25,1.2605,1.2605,1.2605,1.2605, 187
04/07/2020,11:26,1.2625,1.2625,1.2625,1.2625, 5000
04/07/2020,11:28,1.2615,1.2615,1.2615,1.2615, 3295
04/07/2020,11:29,1.2605,1.2605,1.2605,1.2605, 1005
04/07/2020,11:30,1.2595,1.2595,1.2585,1.2595, 3876
04/07/2020,11:33,1.258,1.258,1.2575,1.258, 1196
04/07/2020,11:34,1.2575,1.2575,1.257,1.257, 4596
04/07/2020,11:36,1.2555,1.2555,1.2555,1.2555, 3149
04/07/2020,11:36,1.254,1.254,1.2535,1.2535, 1439
04/07/2020,11:38,1.2535,1.2545,1.252,1.2525, 14560
04/07/2020,11:42,1.2519,1.2519,1.2519,1.2519, 2609
04/07/2020,11:43,1.2535,1.2535,1.252,1.252, 8379
04/07/2020,11:44,1.253,1.255,1.253,1.254, 5294
04/07/2020,11:46,1.2545,1.2545,1.2535,1.2535, 1941
04/07/2020,11:47,1.254,1.254,1.254,1.254, 1489
04/07/2020,11:49,1.254,1.254,1.254,1.254, 272
04/07/2020,11:51,1.2525,1.2525,1.2525,1.2525, 2519
04/07/2020,11:55,1.253,1.253,1.253,1.253, 2009
04/07/2020,11:55,1.252,1.252,1.2515,1.2515, 2015
04/07/2020,11:57,1.253,1.255,1.253,1.255, 10795
04/07/2020,12:00,1.2545,1.2545,1.253,1.253, 1650
04/07/2020,12:02,1.2515,1.2515,1.2515,1.2515, 348
04/07/2020,12:03,1.2515,1.2515,1.25,1.251, 2943
04/07/2020,12:04,1.251,1.251,1.25,1.25, 2280
04/07/2020,12:08,1.251,1.252,1.251,1.252, 5947
04/07/2020,12:09,1.253,1.2535,1.253,1.253, 10340
04/07/2020,12:10,1.253,1.2535,1.253,1.2535, 5877
04/07/2020,12:11,1.2525,1.253,1.2505,1.251, 18477
04/07/2020,12:12,1.2515,1.2515,1.249,1.249, 217071
04/07/2020,12:13,1.25,1.251,1.25,1.251, 3962
04/07/2020,12:14,1.2505,1.2505,1.2505,1.2505, 3020
04/07/2020,12:15,1.251,1.2515,1.25,1.25, 15921
04/07/2020,12:17,1.2495,1.2495,1.2495,1.2495, 3085
04/07/2020,12:17,1.2495,1.25,1.2495,1.25, 4850
04/07/2020,12:20,1.2515,1.2525,1.2505,1.251, 24121
04/07/2020,12:24,1.2505,1.2535,1.2505,1.2525, 12183
04/07/2020,12:25,1.255,1.2555,1.255,1.2555, 2316
04/07/2020,12:26,1.254,1.254,1.2525,1.2525, 2130
04/07/2020,12:29,1.2515,1.2525,1.2515,1.2515, 4637
04/07/2020,12:30,1.2535,1.2535,1.2535,1.2535, 675
04/07/2020,12:31,1.25,1.25,1.25,1.25, 2222
04/07/2020,12:33,1.253,1.253,1.2505,1.2505, 2261
04/07/2020,12:34,1.2505,1.2505,1.2505,1.2505, 78
04/07/2020,12:38,1.252,1.2545,1.252,1.2545, 7194
04/07/2020,12:41,1.2525,1.2525,1.2525,1.2525, 2084
04/07/2020,12:43,1.252,1.252,1.2515,1.2515, 1778
04/07/2020,12:44,1.253,1.253,1.2523,1.2523, 6379
04/07/2020,12:44,1.253,1.253,1.253,1.253, 3823
04/07/2020,12:52,1.2555,1.2555,1.2555,1.2555, 345
04/07/2020,12:53,1.253,1.2535,1.253,1.2535, 3720
04/07/2020,12:55,1.2535,1.2545,1.2535,1.2545, 620
04/07/2020,12:58,1.255,1.2555,1.255,1.2555, 2900
04/07/2020,13:00,1.2535,1.2535,1.2535,1.2535, 4689
04/07/2020,13:03,1.25,1.25,1.25,1.25, 4419
04/07/2020,13:04,1.254,1.254,1.254,1.254, 862
04/07/2020,13:08,1.2545,1.258,1.2545,1.255, 28124
04/07/2020,13:09,1.2565,1.2565,1.256,1.256, 14926
04/07/2020,13:10,1.258,1.258,1.2555,1.256, 46170
04/07/2020,13:11,1.2549,1.2549,1.2549,1.2549, 2500
04/07/2020,13:13,1.2545,1.2555,1.2545,1.2555, 7210
04/07/2020,13:14,1.2575,1.26,1.2575,1.258, 27430
04/07/2020,13:15,1.2585,1.2585,1.2585,1.2585, 800
04/07/2020,13:18,1.257,1.257,1.257,1.257, 2497
04/07/2020,13:19,1.2545,1.2545,1.254,1.2545, 3648
04/07/2020,13:23,1.2543,1.2555,1.2543,1.2555, 3688
04/07/2020,13:25,1.2545,1.2545,1.2545,1.2545, 82
04/07/2020,13:27,1.2548,1.2548,1.2548,1.2548, 796
04/07/2020,13:28,1.2548,1.2548,1.2548,1.2548, 3
04/07/2020,13:31,1.2535,1.2535,1.253,1.2535, 2381
04/07/2020,13:33,1.2535,1.2535,1.2535,1.2535, 1204
04/07/2020,13:35,1.253,1.253,1.253,1.253, 8188
04/07/2020,13:35,1.253,1.253,1.253,1.253, 7338
04/07/2020,13:38,1.252,1.252,1.251,1.251, 2276
04/07/2020,13:40,1.252,1.2525,1.2513,1.2513, 5867
04/07/2020,13:41,1.2515,1.2525,1.251,1.2525, 5732
04/07/2020,13:41,1.2525,1.2525,1.2525,1.2525, 1433
04/07/2020,13:45,1.251,1.251,1.2495,1.25, 42796
04/07/2020,13:46,1.25,1.25,1.25,1.25, 2402
04/07/2020,13:48,1.2505,1.2505,1.2505,1.2505, 5311
04/07/2020,13:49,1.2505,1.2505,1.2505,1.2505, 1710
04/07/2020,13:50,1.2505,1.2505,1.2505,1.2505, 2611
04/07/2020,13:51,1.2515,1.2528,1.2513,1.2513, 4516
04/07/2020,13:52,1.252,1.253,1.252,1.253, 5608
04/07/2020,13:53,1.2525,1.2535,1.252,1.252, 129742
04/07/2020,13:55,1.2525,1.2525,1.2525,1.2525, 4874
04/07/2020,13:56,1.2515,1.2515,1.2513,1.2513, 3596
04/07/2020,13:56,1.251,1.251,1.251,1.251, 1728
04/07/2020,13:58,1.251,1.251,1.251,1.251, 1200
04/07/2020,14:00,1.2505,1.251,1.249,1.249, 9369
04/07/2020,14:01,1.249,1.249,1.2485,1.249, 15212
04/07/2020,14:02,1.2495,1.2495,1.2495,1.2495, 300
04/07/2020,14:04,1.25,1.25,1.25,1.25, 1824
04/07/2020,14:06,1.2495,1.2495,1.249,1.249, 5245
04/07/2020,14:09,1.2495,1.2495,1.247,1.247, 18033
04/07/2020,14:10,1.246,1.246,1.246,1.246, 1482
04/07/2020,14:11,1.2463,1.2463,1.2463,1.2463, 1000
04/07/2020,14:15,1.2465,1.2465,1.2465,1.2465, 4525
04/07/2020,14:16,1.248,1.248,1.247,1.2475, 6779
04/07/2020,14:18,1.2485,1.2485,1.2485,1.2485, 1969
04/07/2020,14:21,1.25,1.25,1.25,1.25, 2393
04/07/2020,14:25,1.248,1.248,1.2475,1.248, 4970
04/07/2020,14:30,1.2475,1.2475,1.2475,1.2475, 1394
04/07/2020,14:31,1.248,1.248,1.248,1.248, 3931
04/07/2020,14:32,1.2485,1.2485,1.2485,1.2485, 4988
04/07/2020,14:34,1.25,1.25,1.25,1.25, 760
04/07/2020,14:36,1.25,1.25,1.25,1.25, 2000
04/07/2020,14:40,1.2485,1.2485,1.2485,1.2485, 1467
04/07/2020,14:41,1.252,1.2535,1.252,1.2535, 6353
04/07/2020,14:48,1.2535,1.2535,1.2535,1.2535, 2052
04/07/2020,14:49,1.253,1.253,1.253,1.253, 766
04/07/2020,14:50,1.253,1.253,1.249,1.249, 11572
04/07/2020,14:51,1.2495,1.2505,1.2495,1.2505, 14883
04/07/2020,14:52,1.251,1.2511,1.251,1.2511, 9552
04/07/2020,14:53,1.2517,1.2517,1.251,1.251, 16026
04/07/2020,15:03,1.2495,1.2495,1.249,1.249, 9930
04/07/2020,15:05,1.25,1.25,1.248,1.248, 6549
04/07/2020,15:06,1.2495,1.2495,1.2495,1.2495, 7524
04/07/2020,15:10,1.251,1.251,1.251,1.251, 2799
04/07/2020,15:13,1.2515,1.2525,1.2515,1.2525, 7725
04/07/2020,15:14,1.2525,1.256,1.2515,1.256, 16376
04/07/2020,15:16,1.2575,1.2575,1.2575,1.2575, 177
04/07/2020,15:17,1.2585,1.259,1.2585,1.259, 3100
04/07/2020,15:17,1.2595,1.26,1.2595,1.26, 5370
04/07/2020,15:20,1.261,1.261,1.2605,1.2605, 3564
04/07/2020,15:22,1.261,1.261,1.261,1.261, 1363
04/07/2020,15:23,1.2615,1.2615,1.2615,1.2615, 600
04/07/2020,15:29,1.262,1.2635,1.262,1.2635, 9949
04/07/2020,15:29,1.265,1.2655,1.2645,1.265, 8172
04/07/2020,15:32,1.2655,1.2655,1.2635,1.264, 4646
04/07/2020,15:32,1.2638,1.2638,1.2615,1.2615, 14047
04/07/2020,15:34,1.26,1.2605,1.2585,1.2585, 13208
04/07/2020,15:36,1.26,1.26,1.259,1.259, 2505
04/07/2020,15:36,1.2605,1.2605,1.2605,1.2605, 5861
04/07/2020,15:36,1.26,1.2605,1.26,1.2605, 4517
04/07/2020,15:37,1.2625,1.2625,1.2625,1.2625, 134
04/07/2020,15:39,1.262,1.262,1.2615,1.2615, 2404
04/07/2020,15:42,1.26,1.262,1.26,1.262, 2697
04/07/2020,15:42,1.2615,1.2615,1.2615,1.2615, 3863
04/07/2020,15:43,1.2613,1.2625,1.2613,1.2625, 1309
04/07/2020,15:44,1.2635,1.2635,1.2635,1.2635, 1
04/07/2020,15:46,1.2595,1.262,1.2595,1.261, 3072
04/07/2020,15:48,1.2605,1.2605,1.2605,1.2605, 325
04/07/2020,15:49,1.2595,1.2615,1.2595,1.2615, 5348
04/07/2020,15:49,1.261,1.261,1.261,1.261, 185
04/07/2020,15:51,1.2605,1.2605,1.26,1.26, 8486
04/07/2020,15:53,1.26,1.26,1.26,1.26, 9117
04/07/2020,15:54,1.26,1.26,1.26,1.26, 3145
04/07/2020,15:58,1.26,1.26,1.26,1.26, 521
04/07/2020,16:00,1.26,1.26,1.26,1.26, 396
04/07/2020,16:02,1.259,1.259,1.258,1.258, 5518
04/07/2020,16:03,1.258,1.2595,1.258,1.2595, 6490
04/07/2020,16:04,1.257,1.2575,1.257,1.257, 1410
04/07/2020,16:05,1.257,1.257,1.256,1.256, 5128
04/07/2020,16:05,1.256,1.256,1.2555,1.2555, 1882
04/07/2020,16:06,1.2565,1.2575,1.2565,1.2575, 7135
04/07/2020,16:07,1.2602,1.2602,1.2602,1.2602, 15870
04/07/2020,16:08,1.257,1.2595,1.2565,1.259, 8577
04/07/2020,16:09,1.261,1.261,1.261,1.261, 1114
04/07/2020,16:09,1.259,1.259,1.259,1.259, 7919
04/07/2020,16:10,1.2585,1.2585,1.2585,1.2585, 1702
04/07/2020,16:10,1.2575,1.2575,1.2575,1.2575, 1990
04/07/2020,16:11,1.2585,1.259,1.2585,1.259, 1917
04/07/2020,16:12,1.258,1.258,1.2565,1.2565, 3034
04/07/2020,16:12,1.2565,1.2565,1.2565,1.2565, 431
04/07/2020,16:12,1.2555,1.2555,1.2555,1.2555, 755
04/07/2020,16:14,1.2568,1.2568,1.2568,1.2568, 6368
04/07/2020,16:14,1.2555,1.2555,1.255,1.2555, 1982
04/07/2020,16:15,1.255,1.2565,1.255,1.2565, 6723
04/07/2020,16:16,1.256,1.256,1.255,1.255, 1354
04/07/2020,16:17,1.255,1.2565,1.255,1.2555, 5922
04/07/2020,16:17,1.255,1.255,1.255,1.255, 124
04/07/2020,16:18,1.2555,1.2555,1.255,1.255, 9104
04/07/2020,16:19,1.2545,1.2545,1.2545,1.2545, 183
04/07/2020,16:19,1.2545,1.2545,1.2545,1.2545, 74
04/07/2020,16:20,1.256,1.256,1.256,1.256, 2596
04/07/2020,16:21,1.2555,1.2555,1.2555,1.2555, 2199
04/07/2020,16:22,1.2545,1.2545,1.2545,1.2545, 3793
04/07/2020,16:23,1.2545,1.2545,1.2535,1.2535, 13056
04/07/2020,16:25,1.2535,1.2535,1.2535,1.2535, 2537
04/07/2020,16:26,1.2495,1.2495,1.2495,1.2495, 1639
04/07/2020,16:27,1.2485,1.249,1.2485,1.249, 6391
04/07/2020,16:28,1.2485,1.2485,1.2465,1.2465, 17808
04/07/2020,16:28,1.2465,1.247,1.2465,1.247, 5423
04/07/2020,16:29,1.249,1.249,1.249,1.249, 126
04/07/2020,16:30,1.2465,1.2465,1.246,1.246, 4480
04/07/2020,16:31,1.246,1.246,1.246,1.246, 559
04/07/2020,16:32,1.245,1.245,1.2435,1.2435, 24036
04/07/2020,16:33,1.2435,1.2435,1.2435,1.2435, 1
04/07/2020,16:35,1.243,1.243,1.2425,1.2425, 11312
04/07/2020,16:35,1.243,1.243,1.2425,1.2425, 4685
04/07/2020,16:37,1.241,1.241,1.241,1.241, 4128
04/07/2020,16:38,1.2395,1.24,1.2395,1.2395, 5423
04/07/2020,16:38,1.241,1.243,1.241,1.243, 7182
04/07/2020,16:39,1.242,1.242,1.2415,1.2415, 7116
04/07/2020,16:43,1.2415,1.2435,1.2405,1.2435, 16971
04/07/2020,16:45,1.2425,1.2425,1.24,1.24, 11284
04/07/2020,16:46,1.2397,1.2397,1.2397,1.2397, 796
04/07/2020,16:47,1.239,1.2395,1.239,1.2395, 10902
04/07/2020,16:47,1.238,1.238,1.235,1.236, 2921
04/07/2020,16:48,1.235,1.237,1.235,1.236, 17085
04/07/2020,16:49,1.2355,1.2355,1.2345,1.2345, 6455
04/07/2020,16:49,1.233,1.2335,1.233,1.233, 5639
04/07/2020,16:50,1.233,1.233,1.233,1.233, 1483
04/07/2020,16:51,1.233,1.233,1.2325,1.2325, 1131
04/07/2020,16:52,1.232,1.2325,1.232,1.232, 6402
04/07/2020,16:52,1.232,1.232,1.2295,1.2295, 8795
04/07/2020,16:53,1.2295,1.2295,1.2285,1.2285, 4607
04/07/2020,16:53,1.226,1.226,1.226,1.226, 3277
04/07/2020,16:54,1.2245,1.2245,1.224,1.224, 8670
04/07/2020,16:55,1.222,1.224,1.222,1.2235, 10538
04/07/2020,16:56,1.224,1.224,1.224,1.224, 7079
04/07/2020,17:00,1.2275,1.2295,1.2275,1.2295, 1862
04/07/2020,17:01,1.2295,1.23,1.2295,1.2295, 4395
04/07/2020,17:03,1.2295,1.2295,1.228,1.228, 19759
04/07/2020,17:03,1.2285,1.2285,1.2285,1.2285, 1581
04/07/2020,17:04,1.2295,1.2295,1.2295,1.2295, 3906
04/07/2020,17:06,1.2325,1.236,1.2325,1.235, 7641
04/07/2020,17:07,1.236,1.236,1.236,1.236, 1124
04/07/2020,17:08,1.2362,1.238,1.2355,1.2355, 12599
04/07/2020,17:09,1.2375,1.2395,1.2375,1.2395, 7620
04/07/2020,17:10,1.24,1.242,1.24,1.242, 7421
04/07/2020,17:14,1.2415,1.2415,1.24,1.241, 8792
04/07/2020,17:15,1.24,1.24,1.2395,1.2395, 4336
04/07/2020,17:17,1.241,1.2445,1.241,1.243, 19217
04/07/2020,17:18,1.2425,1.2428,1.2425,1.2428, 2730
04/07/2020,17:19,1.2428,1.2428,1.2415,1.242, 10430
04/07/2020,17:20,1.2415,1.2415,1.241,1.2415, 5954
04/07/2020,17:21,1.2417,1.2417,1.2415,1.2415, 1046
04/07/2020,17:22,1.2405,1.241,1.2405,1.241, 4164
04/07/2020,17:23,1.2415,1.242,1.2415,1.242, 3974
04/07/2020,17:24,1.243,1.2435,1.243,1.2435, 14774
04/07/2020,17:26,1.2445,1.246,1.2445,1.2455, 20620
04/07/2020,17:27,1.2455,1.2455,1.244,1.2445, 12139
04/07/2020,17:28,1.246,1.246,1.246,1.246, 2352
04/07/2020,17:29,1.2419,1.2455,1.2365,1.237, 104031
04/07/2020,17:30,1.239,1.239,1.2383,1.2383, 7532
04/07/2020,17:30,1.236,1.236,1.236,1.236, 605
04/07/2020,17:36,1.248,1.248,1.248,1.248, 1031590
04/08/2020,09:01,1.2075,1.2075,1.2075,1.2075, 876
04/08/2020,09:07,1.2125,1.2125,1.1915,1.1915, 7091
04/08/2020,09:08,1.1965,1.1965,1.1855,1.19, 7431
04/08/2020,09:09,1.197,1.202,1.191,1.202, 21525
04/08/2020,09:10,1.1877,1.2025,1.1877,1.2, 20379
04/08/2020,09:12,1.2085,1.2085,1.2085,1.2085, 1480
04/08/2020,09:12,1.209,1.209,1.209,1.209, 2802
04/08/2020,09:14,1.204,1.204,1.199,1.2005, 27353
04/08/2020,09:15,1.2025,1.208,1.2025,1.208, 11817
04/08/2020,09:16,1.2105,1.2105,1.2105,1.2105, 20
04/08/2020,09:17,1.208,1.208,1.208,1.208, 3323
04/08/2020,09:17,1.206,1.206,1.206,1.206, 2000
04/08/2020,09:19,1.2015,1.2015,1.2015,1.2015, 586
04/08/2020,09:21,1.195,1.202,1.1945,1.202, 22381
04/08/2020,09:22,1.206,1.2115,1.206,1.2095, 9649
04/08/2020,09:22,1.2095,1.2095,1.2095,1.2095, 6000
04/08/2020,09:24,1.215,1.2155,1.2145,1.2145, 6313
04/08/2020,09:25,1.2135,1.2135,1.2125,1.2135, 2811
04/08/2020,09:26,1.2135,1.2135,1.2135,1.2135, 899
04/08/2020,09:27,1.215,1.216,1.215,1.216, 2837
04/08/2020,09:28,1.216,1.216,1.214,1.214, 2218
04/08/2020,09:29,1.212,1.2125,1.2115,1.2125, 12572
04/08/2020,09:30,1.211,1.211,1.211,1.211, 808
04/08/2020,09:31,1.2175,1.2175,1.208,1.2085, 9348
04/08/2020,09:32,1.208,1.208,1.207,1.207, 2717
04/08/2020,09:32,1.2075,1.2075,1.2075,1.2075, 3405
04/08/2020,09:34,1.204,1.2075,1.204,1.2075, 4704
04/08/2020,09:35,1.207,1.207,1.2065,1.2065, 4599
04/08/2020,09:36,1.205,1.205,1.201,1.202, 6417
04/08/2020,09:37,1.2035,1.2035,1.201,1.201, 2721
04/08/2020,09:38,1.201,1.202,1.1975,1.199, 6833
04/08/2020,09:39,1.199,1.1995,1.199,1.1995, 1753
04/08/2020,09:39,1.2,1.2,1.2,1.2, 2497
04/08/2020,09:41,1.197,1.201,1.197,1.2005, 7934
04/08/2020,09:43,1.202,1.2045,1.2005,1.201, 27017
04/08/2020,09:44,1.2005,1.2035,1.1995,1.2035, 11672
04/08/2020,09:45,1.2025,1.204,1.201,1.204, 8802
04/08/2020,09:46,1.203,1.206,1.2005,1.203, 20476
04/08/2020,09:46,1.203,1.203,1.203,1.203, 2000
04/08/2020,09:48,1.2035,1.2045,1.2035,1.2045, 3456
04/08/2020,09:50,1.2045,1.2045,1.2015,1.2025, 5920
04/08/2020,09:51,1.2035,1.2065,1.2035,1.2065, 12800
04/08/2020,09:52,1.207,1.207,1.203,1.204, 10616
04/08/2020,09:55,1.2035,1.2035,1.2035,1.2035, 959
04/08/2020,09:55,1.2025,1.2025,1.202,1.2025, 3361
04/08/2020,09:59,1.2045,1.2045,1.2045,1.2045, 1860
04/08/2020,10:01,1.2065,1.2065,1.2065,1.2065, 3985
04/08/2020,10:01,1.2065,1.2065,1.2058,1.2058, 1919
04/08/2020,10:02,1.2055,1.2065,1.2045,1.2065, 11539
04/08/2020,10:04,1.207,1.2085,1.207,1.2085, 13591
04/08/2020,10:05,1.209,1.2095,1.209,1.209, 2547
04/08/2020,10:06,1.2105,1.212,1.21,1.212, 14354
04/08/2020,10:07,1.2115,1.214,1.2115,1.214, 16960
04/08/2020,10:08,1.215,1.215,1.215,1.215, 7066
04/08/2020,10:09,1.2135,1.2145,1.2135,1.2145, 5755
04/08/2020,10:10,1.2135,1.214,1.212,1.214, 22490
04/08/2020,10:10,1.214,1.214,1.214,1.214, 5023
04/08/2020,10:12,1.214,1.214,1.214,1.214, 1104
04/08/2020,10:17,1.2115,1.2115,1.207,1.209, 23576
04/08/2020,10:19,1.209,1.209,1.209,1.209, 2319
04/08/2020,10:21,1.2083,1.2105,1.2083,1.2105, 15822
04/08/2020,10:23,1.2085,1.2135,1.2085,1.2135, 28965
04/08/2020,10:24,1.2135,1.2135,1.2135,1.2135, 2490
04/08/2020,10:24,1.2135,1.2135,1.2135,1.2135, 434
04/08/2020,10:28,1.2105,1.2105,1.2085,1.2085, 27912
04/08/2020,10:30,1.2085,1.2125,1.208,1.212, 35748
04/08/2020,10:31,1.211,1.213,1.211,1.213, 10313
04/08/2020,10:31,1.2135,1.2135,1.2135,1.2135, 3017
04/08/2020,10:33,1.2135,1.214,1.2115,1.2135, 25667
04/08/2020,10:37,1.212,1.2135,1.2075,1.211, 30705
04/08/2020,10:38,1.208,1.208,1.208,1.208, 1278
04/08/2020,10:39,1.206,1.208,1.206,1.208, 7122
04/08/2020,10:40,1.208,1.208,1.206,1.2065, 10164
04/08/2020,10:41,1.2095,1.212,1.2095,1.2115, 34997
04/08/2020,10:41,1.2135,1.2135,1.2135,1.2135, 1513
04/08/2020,10:43,1.212,1.212,1.209,1.21, 13521
04/08/2020,10:43,1.21,1.21,1.21,1.21, 343
04/08/2020,10:45,1.2093,1.2093,1.2093,1.2093, 2474
04/08/2020,10:47,1.2075,1.2085,1.201,1.2018, 197912
04/08/2020,10:48,1.2035,1.205,1.2035,1.2045, 7566
04/08/2020,10:53,1.2025,1.204,1.2005,1.202, 42241
04/08/2020,10:54,1.1993,1.2005,1.199,1.199, 15789
04/08/2020,10:55,1.202,1.205,1.202,1.205, 14915
04/08/2020,10:56,1.2035,1.2043,1.2035,1.2043, 3544
04/08/2020,10:57,1.2025,1.2025,1.1995,1.1995, 6141
04/08/2020,11:00,1.1995,1.2,1.1995,1.2, 3756
04/08/2020,11:02,1.2005,1.202,1.2005,1.202, 2312
04/08/2020,11:05,1.2005,1.202,1.2005,1.202, 12632
04/08/2020,11:05,1.202,1.202,1.202,1.202, 1060
04/08/2020,11:09,1.2,1.2,1.2,1.2, 2068
04/08/2020,11:11,1.202,1.2025,1.202,1.202, 6901
04/08/2020,11:13,1.2025,1.2025,1.1985,1.1995, 19793
04/08/2020,11:13,1.2005,1.201,1.2005,1.2005, 8262
04/08/2020,11:18,1.199,1.199,1.197,1.197, 6936
04/08/2020,11:19,1.197,1.1995,1.197,1.199, 24969
04/08/2020,11:20,1.199,1.199,1.199,1.199, 1341
04/08/2020,11:22,1.197,1.199,1.197,1.197, 27590
04/08/2020,11:22,1.196,1.196,1.196,1.196, 2000
04/08/2020,11:24,1.196,1.196,1.1935,1.1935, 13528
04/08/2020,11:27,1.1905,1.1915,1.1895,1.1905, 13343
04/08/2020,11:28,1.191,1.191,1.1905,1.1905, 2205
04/08/2020,11:31,1.1915,1.194,1.1905,1.1915, 38243
04/08/2020,11:31,1.192,1.192,1.192,1.192, 7639
04/08/2020,11:33,1.191,1.191,1.191,1.191, 320
04/08/2020,11:34,1.1905,1.1905,1.1885,1.1885, 7380
04/08/2020,11:35,1.189,1.189,1.189,1.189, 5681
04/08/2020,11:39,1.189,1.189,1.189,1.189, 1737
04/08/2020,11:42,1.1888,1.1888,1.188,1.188, 1042
04/08/2020,11:43,1.1895,1.1895,1.187,1.187, 5706
04/08/2020,11:47,1.1875,1.1905,1.1875,1.1905, 4389
04/08/2020,11:49,1.186,1.1875,1.186,1.187, 5630
04/08/2020,11:51,1.1845,1.1845,1.184,1.184, 11961
04/08/2020,11:52,1.183,1.183,1.183,1.183, 5540
04/08/2020,11:52,1.1835,1.19,1.1835,1.1855, 39939
04/08/2020,11:53,1.1855,1.1855,1.1855,1.1855, 1107
04/08/2020,11:54,1.184,1.185,1.1835,1.184, 8885
04/08/2020,11:55,1.1843,1.1843,1.1843,1.1843, 2
04/08/2020,11:59,1.186,1.186,1.1855,1.1855, 6460
04/08/2020,12:01,1.1871,1.1871,1.1871,1.1871, 4211
04/08/2020,12:03,1.1865,1.1875,1.1865,1.1875, 3279
04/08/2020,12:04,1.1875,1.1905,1.1875,1.1905, 16811
04/08/2020,12:05,1.1885,1.1885,1.184,1.1855, 40621
04/08/2020,12:09,1.1865,1.1865,1.1865,1.1865, 6082
04/08/2020,12:11,1.186,1.186,1.1855,1.1855, 11160
04/08/2020,12:12,1.1845,1.1845,1.1845,1.1845, 2029
04/08/2020,12:13,1.184,1.1865,1.184,1.186, 21312
04/08/2020,12:13,1.1865,1.1865,1.1855,1.1855, 5338
04/08/2020,12:17,1.1845,1.185,1.182,1.182, 15214
04/08/2020,12:18,1.1825,1.183,1.1825,1.183, 3923
04/08/2020,12:20,1.1845,1.1845,1.1845,1.1845, 2464
04/08/2020,12:21,1.185,1.1855,1.185,1.1855, 9327
04/08/2020,12:22,1.1865,1.187,1.1825,1.183, 29966
04/08/2020,12:23,1.183,1.183,1.182,1.182, 8686
04/08/2020,12:24,1.182,1.182,1.182,1.182, 2104
04/08/2020,12:26,1.183,1.185,1.182,1.182, 30647
04/08/2020,12:27,1.1823,1.1823,1.1823,1.1823, 1000
04/08/2020,12:28,1.183,1.183,1.1815,1.1825, 4402
04/08/2020,12:30,1.1835,1.1835,1.1835,1.1835, 1981
04/08/2020,12:32,1.185,1.185,1.1832,1.1832, 25113
04/08/2020,12:32,1.185,1.189,1.1845,1.189, 31655
04/08/2020,12:34,1.189,1.19,1.1875,1.1875, 7706
04/08/2020,12:34,1.1885,1.1885,1.186,1.186, 8122
04/08/2020,12:36,1.1865,1.1865,1.1855,1.1855, 3340
04/08/2020,12:37,1.187,1.1875,1.187,1.1875, 7739
04/08/2020,12:38,1.188,1.191,1.188,1.191, 16839
04/08/2020,12:39,1.192,1.193,1.192,1.193, 35679
04/08/2020,12:40,1.193,1.194,1.191,1.194, 11280
04/08/2020,12:40,1.193,1.193,1.193,1.193, 2972
04/08/2020,12:41,1.193,1.193,1.193,1.193, 1688
04/08/2020,12:42,1.194,1.194,1.194,1.194, 3524
04/08/2020,12:48,1.194,1.194,1.194,1.194, 3436
04/08/2020,12:49,1.193,1.193,1.193,1.193, 5000
04/08/2020,12:54,1.194,1.194,1.194,1.194, 1505
04/08/2020,12:55,1.1945,1.196,1.193,1.193, 15185
04/08/2020,12:55,1.1965,1.1965,1.1965,1.1965, 3046
04/08/2020,12:57,1.195,1.1955,1.1945,1.1955, 11166
04/08/2020,12:59,1.195,1.1965,1.195,1.1965, 7029
04/08/2020,13:03,1.1935,1.1935,1.1935,1.1935, 5759
04/08/2020,13:05,1.1975,1.1975,1.1975,1.1975, 2620
04/08/2020,13:06,1.1985,1.1985,1.1985,1.1985, 5637
04/08/2020,13:07,1.199,1.203,1.199,1.203, 20814
04/08/2020,13:08,1.203,1.203,1.2005,1.2005, 16129
04/08/2020,13:11,1.2025,1.2025,1.2025,1.2025, 5168
04/08/2020,13:12,1.203,1.2035,1.203,1.2035, 12174
04/08/2020,13:13,1.204,1.206,1.204,1.206, 10263
04/08/2020,13:17,1.2058,1.2058,1.2058,1.2058, 600
04/08/2020,13:21,1.2065,1.2065,1.2065,1.2065, 1595
04/08/2020,13:23,1.2045,1.205,1.203,1.204, 22063
04/08/2020,13:26,1.2055,1.2085,1.205,1.2085, 22603
04/08/2020,13:27,1.2085,1.2085,1.207,1.207, 8315
04/08/2020,13:28,1.2075,1.2075,1.2075,1.2075, 5260
04/08/2020,13:29,1.2065,1.2065,1.2055,1.2055, 3996
04/08/2020,13:29,1.2055,1.2055,1.2055,1.2055, 2000
04/08/2020,13:30,1.2045,1.2045,1.2045,1.2045, 2539
04/08/2020,13:31,1.204,1.204,1.204,1.204, 943
04/08/2020,13:34,1.204,1.204,1.204,1.204, 683
04/08/2020,13:35,1.2035,1.2035,1.2035,1.2035, 891
04/08/2020,13:37,1.2035,1.2035,1.2035,1.2035, 5775
04/08/2020,13:38,1.2045,1.2045,1.2035,1.2035, 3104
04/08/2020,13:41,1.205,1.205,1.205,1.205, 4506
04/08/2020,13:42,1.205,1.205,1.202,1.202, 24919
04/08/2020,13:44,1.202,1.202,1.202,1.202, 2567
04/08/2020,13:44,1.201,1.202,1.201,1.202, 3517
04/08/2020,13:46,1.202,1.202,1.202,1.202, 4667
04/08/2020,13:49,1.202,1.202,1.202,1.202, 883
04/08/2020,13:51,1.201,1.204,1.201,1.2035, 30746
04/08/2020,13:53,1.204,1.206,1.204,1.206, 2811
04/08/2020,13:53,1.2055,1.207,1.2055,1.207, 7252
04/08/2020,13:58,1.207,1.208,1.207,1.208, 10344
04/08/2020,13:59,1.209,1.2095,1.208,1.209, 16039
04/08/2020,14:00,1.2093,1.2093,1.2093,1.2093, 5000
04/08/2020,14:02,1.21,1.21,1.21,1.21, 1403
04/08/2020,14:04,1.21,1.21,1.21,1.21, 8288
04/08/2020,14:05,1.2105,1.2115,1.2105,1.2115, 6382
04/08/2020,14:05,1.212,1.212,1.212,1.212, 2129
04/08/2020,14:06,1.2095,1.2095,1.2095,1.2095, 4800
04/08/2020,14:08,1.2125,1.2135,1.2125,1.2135, 10627
04/08/2020,14:13,1.2137,1.2138,1.2137,1.2138, 221
04/08/2020,14:13,1.215,1.2165,1.215,1.2165, 9548
04/08/2020,14:16,1.2155,1.2155,1.2155,1.2155, 424
04/08/2020,14:18,1.2135,1.2135,1.2135,1.2135, 881
04/08/2020,14:21,1.2155,1.2155,1.2155,1.2155, 1331
04/08/2020,14:28,1.2145,1.2145,1.2145,1.2145, 2221
04/08/2020,14:29,1.2142,1.2142,1.2135,1.2135, 7506
04/08/2020,14:31,1.215,1.215,1.215,1.215, 2768
04/08/2020,14:32,1.215,1.2155,1.215,1.2155, 8600
04/08/2020,14:33,1.216,1.216,1.2145,1.2145, 13874
04/08/2020,14:34,1.215,1.2165,1.215,1.2165, 12372
04/08/2020,14:35,1.2165,1.2165,1.2165,1.2165, 7788
04/08/2020,14:36,1.2165,1.2165,1.2165,1.2165, 572
04/08/2020,14:38,1.215,1.2155,1.2135,1.2155, 24356
04/08/2020,14:40,1.214,1.214,1.214,1.214, 1477
04/08/2020,14:41,1.216,1.2175,1.216,1.2175, 20353
04/08/2020,14:42,1.219,1.219,1.219,1.219, 418
04/08/2020,14:43,1.218,1.218,1.2155,1.217, 14589
04/08/2020,14:45,1.215,1.215,1.215,1.215, 1365
04/08/2020,14:46,1.2165,1.22,1.2165,1.2195, 14943
04/08/2020,14:47,1.2212,1.2212,1.219,1.219, 17587
04/08/2020,14:50,1.2195,1.2205,1.2195,1.2205, 9009
04/08/2020,14:51,1.2205,1.2205,1.2188,1.2188, 17353
04/08/2020,14:52,1.2185,1.2185,1.2185,1.2185, 2020
04/08/2020,14:53,1.22,1.22,1.22,1.22, 300
04/08/2020,14:55,1.2185,1.2185,1.2185,1.2185, 2494
04/08/2020,14:56,1.2185,1.2185,1.2185,1.2185, 1123
04/08/2020,14:58,1.2185,1.2185,1.217,1.217, 13291
04/08/2020,15:00,1.219,1.2205,1.219,1.2205, 9842
04/08/2020,15:01,1.2205,1.2205,1.2205,1.2205, 2000
04/08/2020,15:04,1.219,1.219,1.2185,1.2185, 6335
04/08/2020,15:09,1.2205,1.2205,1.2205,1.2205, 1277
04/08/2020,15:09,1.2185,1.2185,1.2185,1.2185, 2827
04/08/2020,15:11,1.2175,1.218,1.2155,1.218, 62321
04/08/2020,15:12,1.2155,1.2155,1.2155,1.2155, 1323
04/08/2020,15:15,1.2145,1.2145,1.2131,1.2131, 5658
04/08/2020,15:16,1.214,1.214,1.214,1.214, 2591
04/08/2020,15:18,1.2145,1.2165,1.2145,1.2165, 8284
04/08/2020,15:18,1.217,1.2175,1.217,1.217, 6468
04/08/2020,15:19,1.215,1.2165,1.2145,1.2145, 6086
04/08/2020,15:20,1.214,1.2145,1.214,1.2145, 6825
04/08/2020,15:21,1.214,1.214,1.214,1.214, 1181
04/08/2020,15:23,1.215,1.215,1.2135,1.214, 16851
04/08/2020,15:23,1.213,1.213,1.2127,1.2127, 11215
04/08/2020,15:25,1.2135,1.2155,1.2135,1.2155, 27987
04/08/2020,15:25,1.2165,1.2165,1.2165,1.2165, 3529
04/08/2020,15:29,1.215,1.215,1.2135,1.214, 12778
04/08/2020,15:30,1.214,1.214,1.214,1.214, 2433
04/08/2020,15:32,1.2155,1.2155,1.2155,1.2155, 2555
04/08/2020,15:33,1.2165,1.217,1.2165,1.217, 6937
04/08/2020,15:34,1.218,1.218,1.2165,1.2165, 6962
04/08/2020,15:35,1.2155,1.2165,1.2155,1.2165, 5494
04/08/2020,15:36,1.2175,1.218,1.2175,1.218, 6421
04/08/2020,15:37,1.218,1.218,1.218,1.218, 10157
04/08/2020,15:38,1.217,1.217,1.2155,1.2165, 15182
04/08/2020,15:38,1.217,1.2175,1.217,1.2175, 3761
04/08/2020,15:40,1.218,1.219,1.218,1.219, 7966
04/08/2020,15:41,1.22,1.22,1.219,1.2195, 31778
04/08/2020,15:42,1.219,1.219,1.219,1.219, 2390
04/08/2020,15:43,1.219,1.219,1.219,1.219, 1689
04/08/2020,15:46,1.2205,1.2215,1.2205,1.2215, 10507
04/08/2020,15:47,1.223,1.223,1.223,1.223, 1635
04/08/2020,15:48,1.223,1.223,1.223,1.223, 2027
04/08/2020,15:50,1.2215,1.2215,1.2185,1.2195, 30367
04/08/2020,15:51,1.2195,1.2195,1.2195,1.2195, 2253
04/08/2020,15:51,1.22,1.22,1.22,1.22, 2122
04/08/2020,15:51,1.219,1.2195,1.219,1.2195, 6987
04/08/2020,15:52,1.2185,1.2195,1.218,1.219, 15356
04/08/2020,15:53,1.2185,1.2185,1.218,1.218, 4670
04/08/2020,15:54,1.219,1.219,1.219,1.219, 2000
04/08/2020,15:55,1.219,1.2195,1.2175,1.2175, 24205
04/08/2020,15:57,1.2175,1.2175,1.2175,1.2175, 3604
04/08/2020,15:58,1.2165,1.2165,1.216,1.216, 8382
04/08/2020,15:59,1.2155,1.2155,1.2145,1.2145, 4794
04/08/2020,16:00,1.2145,1.2145,1.2125,1.2125, 12622
04/08/2020,16:01,1.213,1.215,1.213,1.214, 16092
04/08/2020,16:02,1.2155,1.2155,1.2155,1.2155, 1361
04/08/2020,16:02,1.2155,1.2155,1.2155,1.2155, 3261
04/08/2020,16:03,1.2155,1.2155,1.2155,1.2155, 1197
04/08/2020,16:05,1.2145,1.2145,1.212,1.212, 13167
04/08/2020,16:06,1.211,1.2135,1.211,1.213, 19548
04/08/2020,16:06,1.213,1.213,1.2125,1.2125, 6689
04/08/2020,16:08,1.213,1.213,1.213,1.213, 2618
04/08/2020,16:10,1.213,1.213,1.2095,1.21, 20432
04/08/2020,16:11,1.2105,1.2105,1.2105,1.2105, 13879
04/08/2020,16:12,1.2108,1.2108,1.209,1.21, 58610
04/08/2020,16:13,1.21,1.21,1.208,1.2085, 51811
04/08/2020,16:14,1.2085,1.209,1.2075,1.2085, 19817
04/08/2020,16:16,1.209,1.209,1.209,1.209, 2197
04/08/2020,16:18,1.209,1.209,1.209,1.209, 6855
04/08/2020,16:19,1.2075,1.21,1.2075,1.21, 33648
04/08/2020,16:22,1.211,1.211,1.2095,1.2095, 79815
04/08/2020,16:23,1.209,1.2095,1.209,1.2095, 10606
04/08/2020,16:23,1.2095,1.2095,1.2095,1.2095, 2900
04/08/2020,16:25,1.209,1.21,1.209,1.209, 21364
04/08/2020,16:26,1.2095,1.2095,1.2095,1.2095, 3176
04/08/2020,16:27,1.209,1.2095,1.2085,1.2095, 11449
04/08/2020,16:28,1.2095,1.21,1.209,1.2095, 29140
04/08/2020,16:29,1.2095,1.2095,1.209,1.209, 3968
04/08/2020,16:31,1.2095,1.211,1.209,1.209, 38527
04/08/2020,16:33,1.209,1.2105,1.2085,1.2105, 20702
04/08/2020,16:33,1.209,1.21,1.209,1.21, 8372
04/08/2020,16:34,1.2095,1.2095,1.2095,1.2095, 3337
04/08/2020,16:36,1.21,1.21,1.2095,1.2095, 6979
04/08/2020,16:37,1.21,1.21,1.209,1.2095, 8086
04/08/2020,16:38,1.2095,1.2095,1.2095,1.2095, 496
04/08/2020,16:40,1.2085,1.2085,1.207,1.2075, 23914
04/08/2020,16:42,1.2075,1.2075,1.2065,1.2065, 5675
04/08/2020,16:42,1.206,1.206,1.2055,1.2055, 5542
04/08/2020,16:44,1.2055,1.2055,1.2055,1.2055, 6586
04/08/2020,16:46,1.205,1.2055,1.2045,1.2055, 21428
04/08/2020,16:47,1.2045,1.2062,1.2045,1.2062, 11258
04/08/2020,16:48,1.207,1.2094,1.207,1.2094, 25338
04/08/2020,16:49,1.2075,1.208,1.2075,1.208, 4184
04/08/2020,16:50,1.2085,1.2095,1.2085,1.2095, 11246
04/08/2020,16:51,1.2085,1.21,1.208,1.21, 23957
04/08/2020,16:52,1.21,1.21,1.209,1.209, 19188
04/08/2020,16:53,1.2085,1.2085,1.2085,1.2085, 3798
04/08/2020,16:53,1.2081,1.2085,1.2081,1.2085, 5586
04/08/2020,16:54,1.2095,1.2095,1.2095,1.2095, 4308
04/08/2020,16:56,1.2095,1.2095,1.2085,1.2085, 11236
04/08/2020,16:56,1.2095,1.2095,1.209,1.2095, 8387
04/08/2020,16:58,1.209,1.21,1.209,1.209, 22369
04/08/2020,16:59,1.21,1.21,1.21,1.21, 10187
04/08/2020,16:59,1.21,1.2125,1.21,1.2125, 18078
04/08/2020,17:01,1.2135,1.2135,1.212,1.212, 15897
04/08/2020,17:01,1.2115,1.2115,1.211,1.211, 7095
04/08/2020,17:03,1.2105,1.2105,1.2105,1.2105, 4929
04/08/2020,17:04,1.21,1.21,1.21,1.21, 972
04/08/2020,17:04,1.211,1.211,1.211,1.211, 4364
04/08/2020,17:06,1.2105,1.2105,1.21,1.21, 6933
04/08/2020,17:07,1.21,1.2115,1.21,1.2115, 10971
04/08/2020,17:08,1.2115,1.2115,1.2115,1.2115, 5124
04/08/2020,17:09,1.211,1.2125,1.211,1.2125, 21372
04/08/2020,17:10,1.2135,1.2135,1.2125,1.2125, 5674
04/08/2020,17:11,1.2135,1.2135,1.2135,1.2135, 2369
04/08/2020,17:12,1.214,1.215,1.214,1.215, 11015
04/08/2020,17:13,1.216,1.216,1.216,1.216, 1231
04/08/2020,17:14,1.2175,1.2175,1.2165,1.2175, 20551
04/08/2020,17:15,1.218,1.2205,1.218,1.2205, 8370
04/08/2020,17:17,1.221,1.222,1.221,1.222, 4851
04/08/2020,17:19,1.2225,1.223,1.2215,1.2215, 3692
04/08/2020,17:20,1.2235,1.2245,1.2235,1.224, 17390
04/08/2020,17:21,1.2235,1.224,1.223,1.224, 19323
04/08/2020,17:22,1.2245,1.2255,1.224,1.2255, 26594
04/08/2020,17:23,1.225,1.2255,1.225,1.2255, 2799
04/08/2020,17:24,1.2255,1.2285,1.225,1.2285, 29252
04/08/2020,17:25,1.2295,1.2295,1.228,1.228, 15063
04/08/2020,17:26,1.227,1.229,1.227,1.229, 5471
04/08/2020,17:27,1.2295,1.231,1.229,1.23, 25144
04/08/2020,17:28,1.2315,1.2325,1.2315,1.2315, 16494
04/08/2020,17:29,1.2315,1.2325,1.231,1.231, 10409
04/08/2020,17:30,1.2315,1.234,1.2305,1.233, 29231
04/08/2020,17:30,1.2315,1.2325,1.2305,1.2308, 5096
04/08/2020,17:36,1.2305,1.2305,1.2305,1.2305, 1610189
04/09/2020,09:01,1.26,1.26,1.26,1.26, 21505
04/09/2020,09:01,1.2595,1.2595,1.2595,1.2595, 20
04/09/2020,09:03,1.26,1.26,1.2535,1.2535, 4954
04/09/2020,09:03,1.2535,1.2535,1.251,1.251, 17233
04/09/2020,09:04,1.2495,1.2495,1.2475,1.2475, 2684
04/09/2020,09:06,1.2475,1.252,1.2475,1.252, 8746
04/09/2020,09:07,1.2525,1.265,1.2525,1.2615, 43792
04/09/2020,09:08,1.266,1.27,1.264,1.2645, 24565
04/09/2020,09:09,1.264,1.264,1.2595,1.2595, 11371
04/09/2020,09:10,1.2585,1.2605,1.258,1.258, 4321
04/09/2020,09:10,1.262,1.2625,1.2595,1.2595, 21322
04/09/2020,09:12,1.263,1.263,1.2545,1.2545, 33964
04/09/2020,09:13,1.2615,1.2615,1.256,1.258, 14403
04/09/2020,09:14,1.256,1.256,1.253,1.253, 8308
04/09/2020,09:14,1.256,1.2715,1.256,1.2645, 24382
04/09/2020,09:16,1.267,1.267,1.2665,1.2665, 9259
04/09/2020,09:17,1.269,1.2725,1.268,1.2725, 13014
04/09/2020,09:18,1.27,1.27,1.2675,1.2675, 5407
04/09/2020,09:19,1.2685,1.2705,1.264,1.264, 22229
04/09/2020,09:21,1.268,1.268,1.2665,1.2665, 12935
04/09/2020,09:23,1.263,1.263,1.263,1.263, 2315
04/09/2020,09:24,1.262,1.2625,1.262,1.2625, 6145
04/09/2020,09:25,1.2615,1.2615,1.2565,1.2565, 10435
04/09/2020,09:25,1.259,1.259,1.259,1.259, 1481
04/09/2020,09:27,1.2615,1.2615,1.2615,1.2615, 2000
04/09/2020,09:28,1.2615,1.2615,1.2615,1.2615, 744
04/09/2020,09:28,1.262,1.2625,1.262,1.2625, 8410
04/09/2020,09:31,1.261,1.261,1.2585,1.2595, 16549
04/09/2020,09:32,1.2605,1.2605,1.2585,1.2585, 9213
04/09/2020,09:33,1.2575,1.259,1.2565,1.257, 16148
04/09/2020,09:33,1.2575,1.2575,1.2575,1.2575, 3460
04/09/2020,09:35,1.2595,1.2615,1.2585,1.2605, 35996
04/09/2020,09:36,1.261,1.261,1.2597,1.2597, 1360
04/09/2020,09:37,1.2605,1.2635,1.2595,1.261, 29537
04/09/2020,09:38,1.26,1.26,1.2585,1.2585, 19249
04/09/2020,09:39,1.26,1.26,1.26,1.26, 593
04/09/2020,09:40,1.258,1.258,1.253,1.253, 26035
04/09/2020,09:40,1.2515,1.2515,1.2515,1.2515, 1054
04/09/2020,09:42,1.25,1.25,1.2475,1.2475, 5730
04/09/2020,09:43,1.2455,1.246,1.2455,1.246, 5420
04/09/2020,09:43,1.247,1.25,1.2465,1.2475, 18278
04/09/2020,09:45,1.247,1.247,1.2435,1.246, 10032
04/09/2020,09:46,1.247,1.247,1.246,1.246, 5681
04/09/2020,09:46,1.2495,1.2495,1.2495,1.2495, 1275
04/09/2020,09:48,1.251,1.2525,1.25,1.2525, 24612
04/09/2020,09:49,1.2535,1.2535,1.253,1.253, 1695
04/09/2020,09:50,1.2565,1.2605,1.2555,1.2555, 24554
04/09/2020,09:51,1.2575,1.258,1.2575,1.258, 7988
04/09/2020,09:54,1.256,1.2575,1.255,1.2575, 15925
04/09/2020,09:55,1.2595,1.26,1.259,1.2595, 15292
04/09/2020,09:56,1.261,1.261,1.261,1.261, 2000
04/09/2020,09:57,1.26,1.26,1.2562,1.2562, 56808
04/09/2020,09:58,1.258,1.26,1.257,1.257, 27419
04/09/2020,09:59,1.2545,1.2545,1.252,1.253, 24080
04/09/2020,10:00,1.2515,1.252,1.2515,1.2515, 9862
04/09/2020,10:02,1.253,1.254,1.2525,1.2525, 13208
04/09/2020,10:03,1.25,1.2505,1.248,1.2485, 4034
04/09/2020,10:04,1.2485,1.249,1.2485,1.249, 6554
04/09/2020,10:05,1.247,1.247,1.2445,1.2445, 27999
04/09/2020,10:08,1.2475,1.2475,1.2475,1.2475, 1567
04/09/2020,10:08,1.25,1.251,1.249,1.251, 26697
04/09/2020,10:10,1.251,1.254,1.251,1.254, 12528
04/09/2020,10:11,1.2545,1.2545,1.252,1.252, 4953
04/09/2020,10:12,1.25,1.25,1.2495,1.2495, 5769
04/09/2020,10:13,1.2515,1.2525,1.2515,1.2525, 20275
04/09/2020,10:14,1.252,1.252,1.2505,1.2505, 3945
04/09/2020,10:15,1.25,1.25,1.25,1.25, 14073
04/09/2020,10:15,1.25,1.25,1.25,1.25, 5000
04/09/2020,10:17,1.25,1.25,1.248,1.2485, 15182
04/09/2020,10:18,1.25,1.2505,1.249,1.249, 40983
04/09/2020,10:19,1.2485,1.2485,1.2485,1.2485, 1773
04/09/2020,10:20,1.2495,1.25,1.2495,1.25, 11680
04/09/2020,10:21,1.248,1.248,1.248,1.248, 1337
04/09/2020,10:22,1.2495,1.2495,1.2495,1.2495, 3949
04/09/2020,10:23,1.2495,1.2495,1.2495,1.2495, 1290
04/09/2020,10:24,1.2505,1.2505,1.25,1.2505, 14654
04/09/2020,10:24,1.249,1.249,1.249,1.249, 5139
04/09/2020,10:25,1.2485,1.2485,1.2485,1.2485, 3437
04/09/2020,10:29,1.247,1.247,1.247,1.247, 2175
04/09/2020,10:30,1.2465,1.2465,1.2465,1.2465, 2222
04/09/2020,10:30,1.246,1.246,1.2425,1.2425, 43780
04/09/2020,10:33,1.2415,1.2415,1.2405,1.2405, 3564
04/09/2020,10:37,1.2395,1.2395,1.2395,1.2395, 2844
04/09/2020,10:38,1.239,1.239,1.239,1.239, 1302
04/09/2020,10:39,1.238,1.238,1.233,1.233, 8070
04/09/2020,10:40,1.232,1.232,1.2315,1.2315, 1565
04/09/2020,10:40,1.23,1.23,1.227,1.227, 7398
04/09/2020,10:43,1.2275,1.2305,1.227,1.2275, 31621
04/09/2020,10:44,1.226,1.227,1.226,1.227, 6436
04/09/2020,10:46,1.224,1.224,1.217,1.217, 7991
04/09/2020,10:48,1.22,1.2205,1.218,1.218, 20706
04/09/2020,10:49,1.2165,1.218,1.214,1.218, 26179
04/09/2020,10:50,1.2195,1.2195,1.2195,1.2195, 2000
04/09/2020,10:51,1.2195,1.2195,1.2195,1.2195, 6505
04/09/2020,10:52,1.216,1.2175,1.216,1.217, 3737
04/09/2020,10:52,1.214,1.214,1.2135,1.214, 4627
04/09/2020,10:55,1.2105,1.2135,1.207,1.2135, 23788
04/09/2020,10:56,1.212,1.212,1.212,1.212, 1242
04/09/2020,10:57,1.2125,1.2125,1.2125,1.2125, 3950
04/09/2020,11:00,1.2125,1.2133,1.2125,1.2133, 5150
04/09/2020,11:03,1.215,1.2175,1.215,1.2175, 11426
04/09/2020,11:04,1.2145,1.2145,1.2145,1.2145, 950
04/09/2020,11:05,1.218,1.218,1.218,1.218, 16917
04/09/2020,11:09,1.2155,1.2155,1.215,1.215, 1631
04/09/2020,11:11,1.2135,1.2135,1.2135,1.2135, 1296
04/09/2020,11:12,1.221,1.221,1.221,1.221, 2020
04/09/2020,11:13,1.216,1.216,1.216,1.216, 6849
04/09/2020,11:13,1.2125,1.2125,1.2125,1.2125, 2691
04/09/2020,11:14,1.2145,1.2145,1.2115,1.212, 5376
04/09/2020,11:18,1.2115,1.2115,1.2095,1.21, 17946
04/09/2020,11:18,1.2085,1.2085,1.2085,1.2085, 1345
04/09/2020,11:22,1.205,1.205,1.205,1.205, 2733
04/09/2020,11:22,1.206,1.209,1.206,1.209, 25995
04/09/2020,11:24,1.207,1.207,1.207,1.207, 2460
04/09/2020,11:26,1.209,1.209,1.209,1.209, 8813
04/09/2020,11:26,1.211,1.211,1.21,1.211, 6933
04/09/2020,11:28,1.209,1.2145,1.209,1.2145, 23788
04/09/2020,11:30,1.2175,1.2175,1.2175,1.2175, 5817
04/09/2020,11:30,1.2195,1.2195,1.2195,1.2195, 3315
04/09/2020,11:32,1.22,1.2215,1.219,1.219, 34250
04/09/2020,11:33,1.2185,1.2185,1.2185,1.2185, 11
04/09/2020,11:35,1.2172,1.2172,1.2172,1.2172, 2
04/09/2020,11:36,1.2172,1.2172,1.216,1.216, 3133
04/09/2020,11:37,1.2167,1.218,1.2162,1.218, 2125
04/09/2020,11:38,1.2167,1.2167,1.2167,1.2167, 1395
04/09/2020,11:40,1.2185,1.2185,1.2185,1.2185, 16784
04/09/2020,11:40,1.214,1.2155,1.212,1.2155, 13845
04/09/2020,11:43,1.2155,1.2155,1.2155,1.2155, 3013
04/09/2020,11:47,1.212,1.212,1.212,1.212, 1519
04/09/2020,11:48,1.216,1.2165,1.216,1.216, 4157
04/09/2020,11:50,1.214,1.214,1.214,1.214, 2384
04/09/2020,11:52,1.2142,1.2142,1.2142,1.2142, 298
04/09/2020,11:55,1.2135,1.2135,1.21,1.21, 11040
04/09/2020,11:55,1.2095,1.21,1.2095,1.2095, 12218
04/09/2020,11:57,1.2085,1.2095,1.2085,1.2095, 22823
04/09/2020,11:58,1.21,1.2115,1.21,1.2115, 2756
04/09/2020,11:59,1.2125,1.213,1.212,1.213, 5173
04/09/2020,12:01,1.212,1.2125,1.212,1.2125, 2381
04/09/2020,12:02,1.2118,1.215,1.2118,1.215, 4687
04/09/2020,12:02,1.2165,1.2165,1.2165,1.2165, 495
04/09/2020,12:08,1.219,1.22,1.219,1.22, 10045
04/09/2020,12:09,1.22,1.22,1.22,1.22, 5000
04/09/2020,12:10,1.2185,1.22,1.2185,1.22, 2308
04/09/2020,12:11,1.218,1.218,1.218,1.218, 73
04/09/2020,12:12,1.2165,1.2165,1.2155,1.2155, 3258
04/09/2020,12:13,1.216,1.22,1.216,1.22, 13452
04/09/2020,12:14,1.2192,1.2192,1.2192,1.2192, 1800
04/09/2020,12:14,1.2205,1.2205,1.2205,1.2205, 3000
04/09/2020,12:17,1.2185,1.22,1.2185,1.22, 4087
04/09/2020,12:23,1.2185,1.2205,1.2185,1.2205, 1151
04/09/2020,12:24,1.221,1.2225,1.2195,1.2195, 7828
04/09/2020,12:25,1.217,1.217,1.217,1.217, 1996
04/09/2020,12:28,1.2175,1.2175,1.2175,1.2175, 99
04/09/2020,12:29,1.2185,1.2185,1.2175,1.2175, 2526
04/09/2020,12:30,1.2155,1.2165,1.215,1.2165, 7828
04/09/2020,12:31,1.2155,1.2155,1.2155,1.2155, 115
04/09/2020,12:33,1.2165,1.2185,1.216,1.2185, 6020
04/09/2020,12:35,1.2175,1.2175,1.2155,1.2155, 5482
04/09/2020,12:37,1.2165,1.2165,1.2165,1.2165, 1216
04/09/2020,12:37,1.2185,1.2185,1.2185,1.2185, 3879
04/09/2020,12:39,1.222,1.222,1.222,1.222, 82
04/09/2020,12:43,1.2225,1.223,1.2185,1.219, 17438
04/09/2020,12:45,1.2195,1.2195,1.2195,1.2195, 1807
04/09/2020,12:46,1.2195,1.2195,1.2195,1.2195, 67
04/09/2020,12:48,1.218,1.218,1.218,1.218, 2015
04/09/2020,12:49,1.218,1.218,1.218,1.218, 700
04/09/2020,12:50,1.217,1.217,1.2155,1.2155, 3184
04/09/2020,12:51,1.218,1.218,1.2175,1.2175, 3799
04/09/2020,12:52,1.2165,1.2165,1.2155,1.2155, 5167
04/09/2020,12:53,1.2184,1.2184,1.2184,1.2184, 41028
04/09/2020,12:55,1.2165,1.2165,1.2165,1.2165, 9418
04/09/2020,12:56,1.2155,1.2155,1.2155,1.2155, 303
04/09/2020,12:57,1.218,1.218,1.218,1.218, 301
04/09/2020,12:57,1.218,1.22,1.218,1.22, 3083
04/09/2020,12:59,1.2205,1.2235,1.2205,1.2235, 2633
04/09/2020,13:00,1.2255,1.2255,1.2255,1.2255, 102
04/09/2020,13:03,1.2205,1.2205,1.2205,1.2205, 2433
04/09/2020,13:05,1.226,1.226,1.226,1.226, 1069
04/09/2020,13:06,1.2275,1.2275,1.2275,1.2275, 2415
04/09/2020,13:07,1.2255,1.2275,1.2245,1.2275, 6249
04/09/2020,13:09,1.229,1.23,1.228,1.23, 8535
04/09/2020,13:10,1.2321,1.2321,1.2321,1.2321, 3846
04/09/2020,13:12,1.232,1.233,1.232,1.233, 1131
04/09/2020,13:14,1.235,1.235,1.235,1.235, 1329
04/09/2020,13:17,1.2355,1.2355,1.2355,1.2355, 2020
04/09/2020,13:23,1.2385,1.2445,1.2385,1.2445, 11162
04/09/2020,13:24,1.2445,1.2445,1.2445,1.2445, 3500
04/09/2020,13:25,1.2445,1.2445,1.2445,1.2445, 2000
04/09/2020,13:26,1.2445,1.245,1.2445,1.245, 3471
04/09/2020,13:26,1.245,1.245,1.245,1.245, 693
04/09/2020,13:30,1.245,1.247,1.244,1.2455, 43825
04/09/2020,13:31,1.244,1.244,1.2435,1.2435, 5039
04/09/2020,13:32,1.245,1.245,1.245,1.245, 11919
04/09/2020,13:33,1.245,1.245,1.245,1.245, 5000
04/09/2020,13:35,1.246,1.2465,1.245,1.2465, 1499
04/09/2020,13:42,1.2435,1.2435,1.241,1.2415, 10830
04/09/2020,13:42,1.2425,1.2425,1.2425,1.2425, 2131
04/09/2020,13:43,1.244,1.244,1.244,1.244, 2000
04/09/2020,13:44,1.2455,1.2455,1.2455,1.2455, 3297
04/09/2020,13:46,1.247,1.247,1.245,1.245, 7971
04/09/2020,13:46,1.247,1.247,1.247,1.247, 3830
04/09/2020,13:48,1.2475,1.249,1.2475,1.2485, 3958
04/09/2020,13:54,1.248,1.25,1.248,1.25, 10264
04/09/2020,13:59,1.2485,1.2485,1.2475,1.2475, 5160
04/09/2020,14:01,1.246,1.246,1.246,1.246, 1629
04/09/2020,14:04,1.248,1.248,1.248,1.248, 2437
04/09/2020,14:05,1.2455,1.2455,1.2455,1.2455, 615
04/09/2020,14:06,1.245,1.245,1.245,1.245, 7570
04/09/2020,14:07,1.2475,1.2475,1.2475,1.2475, 3453
04/09/2020,14:08,1.248,1.248,1.248,1.248, 2846
04/09/2020,14:10,1.2485,1.2495,1.2485,1.2495, 3437
04/09/2020,14:14,1.249,1.249,1.249,1.249, 10000
04/09/2020,14:19,1.249,1.249,1.2485,1.2485, 6865
04/09/2020,14:19,1.2485,1.2485,1.2485,1.2485, 1327
04/09/2020,14:21,1.25,1.25,1.25,1.25, 7847
04/09/2020,14:25,1.2505,1.2505,1.2505,1.2505, 1963
04/09/2020,14:25,1.25,1.25,1.25,1.25, 2926
04/09/2020,14:32,1.251,1.2525,1.251,1.2525, 11811
04/09/2020,14:33,1.2522,1.2522,1.2522,1.2522, 1000
04/09/2020,14:36,1.25,1.2505,1.247,1.2475, 19439
04/09/2020,14:39,1.246,1.246,1.245,1.245, 2362
04/09/2020,14:42,1.2455,1.2455,1.2455,1.2455, 4837
04/09/2020,14:45,1.247,1.2475,1.246,1.246, 20344
04/09/2020,14:46,1.246,1.246,1.2435,1.246, 7327
04/09/2020,14:47,1.2465,1.2465,1.2465,1.2465, 5766
04/09/2020,14:49,1.2445,1.2445,1.2445,1.2445, 264
04/09/2020,14:51,1.247,1.247,1.247,1.247, 1046
04/09/2020,14:52,1.2455,1.2465,1.2455,1.2465, 5196
04/09/2020,14:53,1.244,1.247,1.244,1.247, 586
04/09/2020,14:55,1.248,1.248,1.246,1.246, 15132
04/09/2020,14:58,1.2475,1.2475,1.2475,1.2475, 133
04/09/2020,15:00,1.247,1.2475,1.247,1.2475, 3280
04/09/2020,15:02,1.2485,1.2515,1.2485,1.2505, 25433
04/09/2020,15:03,1.251,1.251,1.2485,1.2495, 11851
04/09/2020,15:04,1.2495,1.251,1.2495,1.251, 35417
04/09/2020,15:05,1.25,1.25,1.25,1.25, 3882
04/09/2020,15:06,1.2475,1.25,1.2475,1.2495, 9791
04/09/2020,15:06,1.2465,1.2465,1.2465,1.2465, 253
04/09/2020,15:07,1.2465,1.2465,1.2465,1.2465, 265
04/09/2020,15:09,1.2495,1.25,1.2495,1.25, 3514
04/09/2020,15:11,1.2482,1.2482,1.2482,1.2482, 190
04/09/2020,15:13,1.2495,1.2495,1.2495,1.2495, 3618
04/09/2020,15:14,1.25,1.25,1.25,1.25, 6219
04/09/2020,15:15,1.25,1.2515,1.25,1.2515, 3656
04/09/2020,15:17,1.2495,1.2495,1.2455,1.2455, 16847
04/09/2020,15:18,1.2465,1.2465,1.2465,1.2465, 4000
04/09/2020,15:20,1.247,1.247,1.247,1.247, 1983
04/09/2020,15:22,1.2475,1.2505,1.2475,1.2505, 7821
04/09/2020,15:25,1.2485,1.25,1.2485,1.25, 4773
04/09/2020,15:26,1.25,1.25,1.25,1.25, 4268
04/09/2020,15:27,1.25,1.2525,1.25,1.2516, 16616
04/09/2020,15:31,1.2505,1.2505,1.247,1.247, 19572
04/09/2020,15:32,1.25,1.2515,1.25,1.2515, 1494
04/09/2020,15:33,1.2525,1.2525,1.252,1.252, 3013
04/09/2020,15:36,1.2538,1.2538,1.2538,1.2538, 900
04/09/2020,15:37,1.255,1.255,1.255,1.255, 996
04/09/2020,15:38,1.255,1.256,1.255,1.256, 2550
04/09/2020,15:42,1.257,1.2605,1.257,1.2605, 13791
04/09/2020,15:44,1.259,1.26,1.259,1.26, 21842
04/09/2020,15:44,1.26,1.26,1.26,1.26, 2600
04/09/2020,15:44,1.262,1.262,1.262,1.262, 1207
04/09/2020,15:45,1.262,1.2625,1.26,1.261, 14913
04/09/2020,15:46,1.2595,1.262,1.2595,1.2605, 12487
04/09/2020,15:46,1.262,1.262,1.262,1.262, 4216
04/09/2020,15:48,1.26,1.2605,1.2595,1.2605, 6204
04/09/2020,15:50,1.2605,1.2605,1.258,1.258, 7027
04/09/2020,15:50,1.2575,1.2575,1.2575,1.2575, 742
04/09/2020,15:52,1.257,1.257,1.257,1.257, 3351
04/09/2020,15:52,1.2565,1.2565,1.2565,1.2565, 1371
04/09/2020,15:53,1.2585,1.2595,1.2585,1.2595, 7617
04/09/2020,15:54,1.261,1.262,1.261,1.262, 2625
04/09/2020,15:55,1.2635,1.2635,1.2635,1.2635, 818
04/09/2020,15:56,1.262,1.262,1.262,1.262, 5470
04/09/2020,15:57,1.264,1.266,1.264,1.266, 10633
04/09/2020,15:57,1.2665,1.2665,1.2665,1.2665, 4098
04/09/2020,15:58,1.2695,1.27,1.2675,1.2675, 37298
04/09/2020,15:59,1.27,1.27,1.27,1.27, 8232
04/09/2020,16:01,1.272,1.2735,1.2685,1.269, 18456
04/09/2020,16:01,1.2695,1.2695,1.2695,1.2695, 178
04/09/2020,16:03,1.268,1.268,1.2654,1.2654, 44965
04/09/2020,16:03,1.268,1.271,1.268,1.2695, 25361
04/09/2020,16:04,1.2675,1.2675,1.2675,1.2675, 1592
04/09/2020,16:05,1.2675,1.2675,1.2655,1.2655, 6808
04/09/2020,16:07,1.2665,1.2665,1.2665,1.2665, 356
04/09/2020,16:07,1.2665,1.2665,1.2665,1.2665, 453
04/09/2020,16:08,1.2655,1.2655,1.2645,1.2645, 3143
04/09/2020,16:10,1.264,1.264,1.262,1.262, 6962
04/09/2020,16:11,1.2635,1.264,1.2635,1.264, 12241
04/09/2020,16:12,1.262,1.262,1.262,1.262, 1500
04/09/2020,16:13,1.2645,1.2645,1.2635,1.2635, 7149
04/09/2020,16:17,1.2645,1.2645,1.2645,1.2645, 483
04/09/2020,16:18,1.2635,1.2635,1.2635,1.2635, 2000
04/09/2020,16:19,1.262,1.2625,1.261,1.2625, 5502
04/09/2020,16:19,1.265,1.2655,1.2645,1.2645, 2293
04/09/2020,16:22,1.263,1.263,1.263,1.263, 1266
04/09/2020,16:23,1.262,1.262,1.26,1.26, 7414
04/09/2020,16:25,1.2615,1.2615,1.2615,1.2615, 4137
04/09/2020,16:25,1.2645,1.2655,1.2645,1.2655, 6927
04/09/2020,16:25,1.263,1.263,1.263,1.263, 7908
04/09/2020,16:27,1.2655,1.2655,1.2655,1.2655, 350
04/09/2020,16:28,1.2655,1.2655,1.2655,1.2655, 19
04/09/2020,16:29,1.27,1.27,1.27,1.27, 2000
04/09/2020,16:31,1.27,1.27,1.27,1.27, 13887
04/09/2020,16:33,1.2715,1.2715,1.27,1.27, 38152
04/09/2020,16:34,1.271,1.2715,1.2695,1.27, 60561
04/09/2020,16:34,1.27,1.27,1.27,1.27, 1443
04/09/2020,16:37,1.2725,1.2745,1.272,1.272, 13399
04/09/2020,16:38,1.2755,1.2755,1.2755,1.2755, 540
04/09/2020,16:39,1.2755,1.2755,1.2714,1.2714, 14234
04/09/2020,16:40,1.2711,1.2711,1.2711,1.2711, 5000
04/09/2020,16:41,1.2715,1.2715,1.2695,1.27, 17511
04/09/2020,16:44,1.271,1.271,1.271,1.271, 2360
04/09/2020,16:45,1.2725,1.2735,1.272,1.272, 9161
04/09/2020,16:46,1.2715,1.2735,1.2715,1.2735, 2390
04/09/2020,16:47,1.2715,1.2715,1.2715,1.2715, 9969
04/09/2020,16:49,1.273,1.273,1.2725,1.2725, 4088
04/09/2020,16:50,1.2715,1.272,1.2695,1.2695, 27504
04/09/2020,16:50,1.269,1.269,1.269,1.269, 2008
04/09/2020,16:51,1.2695,1.2695,1.2695,1.2695, 5999
04/09/2020,16:52,1.2695,1.2695,1.2659,1.266, 68069
04/09/2020,16:52,1.2675,1.27,1.267,1.27, 9079
04/09/2020,16:56,1.2705,1.2705,1.27,1.27, 4843
04/09/2020,16:59,1.27,1.27,1.27,1.27, 2000
04/09/2020,17:00,1.27,1.27,1.27,1.27, 10056
04/09/2020,17:04,1.2685,1.2685,1.2685,1.2685, 4996
04/09/2020,17:07,1.268,1.2682,1.267,1.267, 5695
04/09/2020,17:08,1.2658,1.2665,1.2658,1.266, 31544
04/09/2020,17:09,1.2675,1.2675,1.2675,1.2675, 2445
04/09/2020,17:10,1.2665,1.2675,1.2665,1.2675, 1907
04/09/2020,17:12,1.2675,1.2675,1.2655,1.2655, 9942
04/09/2020,17:13,1.2655,1.2675,1.2655,1.2675, 5379
04/09/2020,17:14,1.2675,1.2675,1.2675,1.2675, 1196
04/09/2020,17:15,1.2675,1.2675,1.264,1.266, 12696
04/09/2020,17:16,1.265,1.265,1.265,1.265, 5776
04/09/2020,17:19,1.264,1.265,1.263,1.264, 26482
04/09/2020,17:20,1.2645,1.2645,1.261,1.2615, 54971
04/09/2020,17:21,1.2595,1.261,1.2585,1.2585, 13171
04/09/2020,17:23,1.259,1.261,1.259,1.26, 32395
04/09/2020,17:24,1.26,1.26,1.2555,1.2555, 15310
04/09/2020,17:25,1.255,1.2585,1.254,1.2585, 27370
04/09/2020,17:27,1.2575,1.2575,1.2575,1.2575, 991
04/09/2020,17:28,1.2588,1.2588,1.258,1.258, 5721
04/09/2020,17:30,1.2572,1.259,1.2525,1.2525, 39336
04/09/2020,17:30,1.254,1.2545,1.25,1.2545, 9695
04/09/2020,17:36,1.2525,1.2525,1.2525,1.2525, 1794412
04/09/2020,17:38,1.2525,1.2525,1.2525,1.2525, 47759
04/14/2020,09:01,1.2625,1.2625,1.2625,1.2625, 10435
04/14/2020,09:03,1.2549,1.2549,1.2549,1.2549, 597
04/14/2020,09:04,1.2495,1.2495,1.2495,1.2495, 563
04/14/2020,09:06,1.2575,1.2625,1.2575,1.2625, 1430
04/14/2020,09:07,1.262,1.262,1.2592,1.2592, 6660
04/14/2020,09:08,1.257,1.259,1.2565,1.259, 11088
04/14/2020,09:10,1.255,1.256,1.255,1.256, 4881
04/14/2020,09:13,1.2565,1.2565,1.253,1.253, 14407
04/14/2020,09:16,1.2555,1.2585,1.255,1.2585, 21107
04/14/2020,09:17,1.2615,1.2615,1.2615,1.2615, 2595
04/14/2020,09:18,1.262,1.264,1.2575,1.2585, 23434
04/14/2020,09:19,1.26,1.26,1.26,1.26, 3682
04/14/2020,09:20,1.2585,1.2585,1.258,1.2585, 4284
04/14/2020,09:21,1.2578,1.2578,1.255,1.256, 4893
04/14/2020,09:23,1.2545,1.2545,1.2545,1.2545, 811
04/14/2020,09:24,1.2553,1.259,1.2552,1.2552, 6418
04/14/2020,09:25,1.2575,1.2575,1.2575,1.2575, 733
04/14/2020,09:26,1.2565,1.2565,1.2565,1.2565, 887
04/14/2020,09:32,1.2604,1.2655,1.259,1.2655, 41123
04/14/2020,09:33,1.2635,1.2635,1.2635,1.2635, 2000
04/14/2020,09:34,1.264,1.2645,1.263,1.263, 6311
04/14/2020,09:35,1.2625,1.2625,1.26,1.2615, 12659
04/14/2020,09:36,1.267,1.269,1.2655,1.2655, 42836
04/14/2020,09:37,1.264,1.2685,1.262,1.2655, 35614
04/14/2020,09:38,1.2655,1.267,1.263,1.264, 15965
04/14/2020,09:39,1.2645,1.2645,1.2645,1.2645, 949
04/14/2020,09:40,1.264,1.264,1.262,1.262, 11026
04/14/2020,09:41,1.2625,1.2625,1.2625,1.2625, 2658
04/14/2020,09:44,1.265,1.265,1.265,1.265, 93
04/14/2020,09:44,1.2625,1.2625,1.2625,1.2625, 339
04/14/2020,09:46,1.2645,1.2645,1.2645,1.2645, 318
04/14/2020,09:47,1.265,1.265,1.264,1.264, 3543
04/14/2020,09:50,1.266,1.266,1.26,1.2605, 25679
04/14/2020,09:56,1.2626,1.2626,1.2626,1.2626, 15840
04/14/2020,09:57,1.2595,1.2595,1.259,1.2595, 7468
04/14/2020,10:01,1.2595,1.2625,1.2595,1.2615, 20156
04/14/2020,10:02,1.264,1.264,1.264,1.264, 4000
04/14/2020,10:03,1.2635,1.2635,1.2635,1.2635, 1
04/14/2020,10:04,1.262,1.2625,1.262,1.262, 5473
04/14/2020,10:05,1.2635,1.265,1.2635,1.265, 5223
04/14/2020,10:05,1.2655,1.2655,1.2635,1.2655, 9124
04/14/2020,10:08,1.2645,1.2663,1.2645,1.265, 10668
04/14/2020,10:08,1.265,1.265,1.265,1.265, 3799
04/14/2020,10:09,1.266,1.266,1.266,1.266, 64
04/14/2020,10:11,1.265,1.265,1.2638,1.2638, 533
04/14/2020,10:13,1.264,1.264,1.264,1.264, 2000
04/14/2020,10:14,1.2645,1.265,1.263,1.263, 9871
04/14/2020,10:15,1.2645,1.2665,1.2625,1.2625, 18347
04/14/2020,10:16,1.2635,1.2645,1.2635,1.264, 28902
04/14/2020,10:17,1.2625,1.263,1.2615,1.2615, 3752
04/14/2020,10:22,1.2615,1.2615,1.2595,1.2615, 17337
04/14/2020,10:23,1.263,1.2635,1.262,1.262, 17620
04/14/2020,10:25,1.2635,1.2635,1.2635,1.2635, 1926
04/14/2020,10:26,1.265,1.265,1.265,1.265, 2212
04/14/2020,10:27,1.264,1.2645,1.2635,1.264, 5835
04/14/2020,10:28,1.2635,1.2635,1.2635,1.2635, 4187
04/14/2020,10:30,1.265,1.267,1.265,1.267, 13264
04/14/2020,10:31,1.266,1.2665,1.2645,1.2645, 15027
04/14/2020,10:32,1.265,1.265,1.265,1.265, 2107
04/14/2020,10:33,1.266,1.266,1.265,1.265, 1550
04/14/2020,10:34,1.2645,1.267,1.2645,1.265, 18385
04/14/2020,10:37,1.2655,1.266,1.263,1.264, 17012
04/14/2020,10:37,1.2655,1.2655,1.265,1.265, 3326
04/14/2020,10:39,1.2655,1.2655,1.2655,1.2655, 381
04/14/2020,10:41,1.265,1.266,1.2645,1.2657, 25547
04/14/2020,10:43,1.265,1.265,1.265,1.265, 5710
04/14/2020,10:43,1.265,1.265,1.2635,1.2635, 7154
04/14/2020,10:46,1.265,1.266,1.265,1.265, 9697
04/14/2020,10:47,1.265,1.265,1.264,1.264, 4570
04/14/2020,10:48,1.2645,1.2645,1.2645,1.2645, 3
04/14/2020,10:51,1.2635,1.2635,1.262,1.263, 8699
04/14/2020,10:52,1.262,1.262,1.262,1.262, 3601
04/14/2020,10:53,1.26,1.261,1.26,1.261, 5453
04/14/2020,10:55,1.262,1.2625,1.262,1.2625, 2900
04/14/2020,10:56,1.2618,1.2618,1.2618,1.2618, 800
04/14/2020,10:57,1.2625,1.264,1.2625,1.264, 15251
04/14/2020,10:58,1.264,1.264,1.264,1.264, 349
04/14/2020,11:01,1.2645,1.268,1.2645,1.267, 43699
04/14/2020,11:02,1.2665,1.2665,1.2665,1.2665, 4424
