03/02/2020,15:31,63.81,63.81,63.55,63.62, 89693
03/02/2020,15:32,63.75,63.75,62.7,62.7, 44953
03/02/2020,15:32,62.72,62.77,62.41,62.41, 5834
03/02/2020,15:33,62.52,62.62,62.19,62.19, 10899
03/02/2020,15:34,62.08,62.18,61.84,62.08, 7908
03/02/2020,15:35,62.08,62.12,61.79,61.79, 8470
03/02/2020,15:36,61.89,61.98,61.42,61.42, 13167
03/02/2020,15:37,61.35,61.43,61.17,61.26, 11119
03/02/2020,15:38,61.24,61.24,60.85,60.96, 8186
03/02/2020,15:39,60.95,60.98,60.68,60.91, 28002
03/02/2020,15:40,60.91,61.29,60.86,61.19, 17707
03/02/2020,15:41,61.23,61.49,61.23,61.49, 2933
03/02/2020,15:47,61.61,61.64,61.53,61.54, 3243
03/02/2020,15:48,61.55,61.61,61.3,61.32, 13927
03/02/2020,15:49,61.32,61.39,61.14,61.22, 10161
03/02/2020,15:50,61.23,61.3,61.19,61.27, 7731
03/02/2020,15:51,61.25,61.39,61.16,61.18, 6862
03/02/2020,15:51,61.18,61.28,61.12,61.21, 10900
03/02/2020,15:52,61.23,61.23,60.94,60.97, 15668
03/02/2020,15:53,60.96,60.98,60.86,60.95, 6330
03/02/2020,15:54,60.95,61,60.8,60.99, 9672
03/02/2020,15:55,61,61.12,60.98,61.06, 7171
03/02/2020,15:56,61.08,61.09,60.81,60.84, 6384
03/02/2020,15:57,60.83,60.93,60.71,60.93, 7964
03/02/2020,15:58,60.86,61.02,60.84,60.89, 4791
03/02/2020,15:59,60.85,60.97,60.79,60.96, 5115
03/02/2020,16:00,60.94,60.98,60.65,60.65, 11006
03/02/2020,16:01,60.63,60.86,60.63,60.86, 8957
03/02/2020,16:01,60.86,60.88,60.73,60.77, 5776
03/02/2020,16:02,60.71,60.8,60.58,60.6, 6300
03/02/2020,16:04,60.55,60.75,60.5,60.72, 11538
03/02/2020,16:05,60.71,60.74,60.5,60.54, 10141
03/02/2020,16:06,60.48,60.76,60.48,60.56, 13861
03/02/2020,16:07,60.58,60.6,60.3,60.3, 11669
03/02/2020,16:08,60.26,60.35,60.16,60.35, 19218
03/02/2020,16:09,60.37,60.44,60.23,60.32, 26861
03/02/2020,16:10,60.29,60.56,60.28,60.49, 8356
03/02/2020,16:11,60.46,60.52,60.4,60.41, 4980
03/02/2020,16:12,60.42,60.6,60.42,60.58, 4560
03/02/2020,16:13,60.56,60.76,60.46,60.72, 18484
03/02/2020,16:14,60.75,60.97,60.71,60.93, 18129
03/02/2020,16:15,61,61.28,60.99,61.07, 9555
03/02/2020,16:16,61.07,61.2,60.92,60.95, 12536
03/02/2020,16:17,60.93,60.93,60.63,60.69, 10270
03/02/2020,16:18,60.68,60.97,60.68,60.94, 11307
03/02/2020,16:20,60.97,61.15,60.97,61.1, 8389
03/02/2020,16:21,61.08,61.25,61.06,61.21, 8784
03/02/2020,16:22,61.19,61.31,61.11,61.16, 13193
03/02/2020,16:23,61.2,61.2,61.04,61.15, 15577
03/02/2020,16:24,61.09,61.12,61,61, 14907
03/02/2020,16:25,60.99,61.21,60.99,61.21, 7023
03/02/2020,16:26,61.17,61.37,61.06,61.29, 11908
03/02/2020,16:27,61.29,61.47,61.29,61.46, 9610
03/02/2020,16:28,61.44,61.56,61.3,61.44, 19102
03/02/2020,16:29,61.41,61.47,61.32,61.45, 10962
03/02/2020,16:30,61.48,61.48,61.29,61.32, 6172
03/02/2020,16:31,61.28,61.39,61.25,61.39, 8491
03/02/2020,16:32,61.37,61.38,60.92,60.92, 8167
03/02/2020,16:33,60.97,60.98,60.86,60.92, 4228
03/02/2020,16:34,60.95,61.05,60.92,61.05, 15547
03/02/2020,16:35,61.11,61.27,61.11,61.27, 13750
03/02/2020,16:36,61.25,61.25,60.97,60.99, 14213
03/02/2020,16:37,61.01,61.08,60.98,61.04, 8300
03/02/2020,16:38,61.04,61.21,61,61.15, 8810
03/02/2020,16:39,61.16,61.27,61.13,61.23, 8048
03/02/2020,16:40,61.21,61.34,61.1,61.31, 13011
03/02/2020,16:41,61.3,61.46,61.29,61.46, 6979
03/02/2020,16:42,61.5,61.57,61.35,61.38, 6541
03/02/2020,16:43,61.35,61.39,61.21,61.35, 4395
03/02/2020,16:44,61.38,61.51,61.38,61.49, 4665
03/02/2020,16:45,61.48,61.55,61.39,61.44, 5633
03/02/2020,16:46,61.46,61.63,61.38,61.59, 5916
03/02/2020,16:47,61.59,61.72,61.57,61.67, 8832
03/02/2020,16:47,61.71,61.76,61.67,61.71, 2325
03/02/2020,16:48,61.73,61.77,61.64,61.77, 3275
03/02/2020,16:49,61.73,61.92,61.71,61.92, 29157
03/02/2020,16:50,61.89,62.09,61.89,61.98, 41039
03/02/2020,16:51,62.02,62.09,61.86,61.95, 8670
03/02/2020,16:52,61.94,62.15,61.89,62.08, 6489
03/02/2020,16:53,62.13,62.2,62.07,62.07, 5511
03/02/2020,16:53,62.07,62.1,62.04,62.1, 2184
03/02/2020,16:54,62.07,62.14,62.05,62.08, 4858
03/02/2020,16:55,62.12,62.35,62.12,62.24, 14385
03/02/2020,16:56,62.24,62.37,62.15,62.34, 13591
03/02/2020,16:57,62.38,62.4,62.17,62.18, 11557
03/02/2020,16:58,62.24,62.33,62.13,62.16, 5950
03/02/2020,16:59,62.16,62.19,61.98,62.06, 7940
03/02/2020,17:00,62.02,62.02,61.76,61.76, 7893
03/02/2020,17:01,61.76,61.81,61.62,61.81, 10464
03/02/2020,17:03,61.83,61.87,61.58,61.64, 17585
03/02/2020,17:04,61.64,61.68,61.5,61.53, 9450
03/02/2020,17:05,61.56,61.61,61.45,61.48, 13022
03/02/2020,17:06,61.44,61.62,61.44,61.56, 8897
03/02/2020,17:07,61.52,61.7,61.52,61.6, 8611
03/02/2020,17:08,61.56,61.56,61.47,61.55, 4620
03/02/2020,17:08,61.55,61.57,61.41,61.55, 7256
03/02/2020,17:09,61.55,61.71,61.52,61.67, 4411
03/02/2020,17:10,61.57,61.65,61.5,61.65, 4802
03/02/2020,17:11,61.61,61.81,61.61,61.79, 12626
03/02/2020,17:12,61.82,62.1,61.82,62.1, 1550
03/02/2020,17:13,62.15,62.32,62.03,62.12, 3072
03/02/2020,17:14,62.21,62.24,62.11,62.17, 6735
03/02/2020,17:15,62.23,62.44,62.21,62.44, 6265
03/02/2020,17:16,62.38,62.41,62.29,62.35, 5945
03/02/2020,17:17,62.35,62.53,62.35,62.51, 10061
03/02/2020,17:18,62.54,62.71,62.54,62.64, 7579
03/02/2020,17:20,62.59,62.71,62.59,62.6, 7202
03/02/2020,17:21,62.58,62.58,62.4,62.45, 9887
03/02/2020,17:22,62.44,62.72,62.39,62.69, 36102
03/02/2020,17:23,62.7,62.8,62.62,62.7, 14553
03/02/2020,17:24,62.74,62.81,62.57,62.75, 8406
03/02/2020,17:25,62.73,62.84,62.6,62.64, 10594
03/02/2020,17:26,62.61,62.73,62.48,62.66, 12364
03/02/2020,17:27,62.63,62.8,62.6,62.6, 8988
03/02/2020,17:29,62.65,62.67,62.38,62.65, 18886
03/02/2020,17:30,62.68,62.7,62.6,62.64, 8187
03/02/2020,17:31,62.63,62.63,62.48,62.56, 4500
03/02/2020,17:32,62.55,62.56,62.38,62.44, 20150
03/02/2020,17:33,62.47,62.53,62.31,62.5, 16257
03/02/2020,17:34,62.53,62.69,62.41,62.69, 12315
03/02/2020,17:35,62.71,62.81,62.66,62.68, 16279
03/02/2020,17:36,62.64,62.69,62.46,62.63, 14360
03/02/2020,17:37,62.6,62.73,62.58,62.66, 8972
03/02/2020,17:38,62.66,62.72,62.62,62.65, 7544
03/02/2020,17:39,62.67,62.72,62.62,62.68, 4000
03/02/2020,17:40,62.7,62.85,62.65,62.83, 7940
03/02/2020,17:41,62.81,62.84,62.64,62.65, 6533
03/02/2020,17:42,62.64,62.64,62.42,62.54, 7129
03/02/2020,17:43,62.55,62.57,62.47,62.48, 12545
03/02/2020,17:44,62.53,62.56,62.46,62.54, 4258
03/02/2020,17:45,62.5,62.6,62.47,62.53, 18865
03/02/2020,17:46,62.55,62.63,62.52,62.53, 4187
03/02/2020,17:47,62.53,62.53,62.45,62.48, 7270
03/02/2020,17:48,62.46,62.5,62.36,62.49, 6875
03/02/2020,17:49,62.51,62.57,62.42,62.43, 5139
03/02/2020,17:50,62.44,62.49,62.4,62.43, 7531
03/02/2020,17:51,62.41,62.52,62.4,62.47, 3800
03/02/2020,17:52,62.47,62.56,62.44,62.54, 10539
03/02/2020,17:53,62.55,62.66,62.5,62.66, 9350
03/02/2020,17:54,62.68,62.68,62.54,62.59, 7605
03/02/2020,17:55,62.65,62.68,62.59,62.63, 27860
03/02/2020,17:56,62.63,62.82,62.6,62.82, 16089
03/02/2020,17:57,62.83,63.03,62.77,62.86, 29396
03/02/2020,17:58,62.84,62.89,62.76,62.8, 17668
03/02/2020,17:59,62.8,62.92,62.76,62.82, 30872
03/02/2020,18:00,62.86,62.87,62.72,62.73, 5820
03/02/2020,18:01,62.79,62.81,62.68,62.81, 7325
03/02/2020,18:02,62.82,62.85,62.72,62.72, 3508
03/02/2020,18:03,62.71,62.77,62.65,62.69, 28319
03/02/2020,18:04,62.7,62.82,62.66,62.82, 10800
03/02/2020,18:05,62.8,62.8,62.71,62.71, 2920
03/02/2020,18:06,62.7,62.7,62.59,62.66, 5159
03/02/2020,18:07,62.66,62.69,62.61,62.61, 4088
03/02/2020,18:08,62.56,62.6,62.36,62.36, 11148
03/02/2020,18:09,62.38,62.4,62.3,62.38, 10922
03/02/2020,18:10,62.38,62.38,62.24,62.24, 8440
03/02/2020,18:11,62.26,62.26,61.97,61.98, 29278
03/02/2020,18:12,62,62,61.59,61.62, 32156
03/02/2020,18:13,61.67,61.79,61.46,61.48, 22520
03/02/2020,18:14,61.51,61.59,61.4,61.42, 28553
03/02/2020,18:15,61.45,61.59,61.33,61.33, 20314
03/02/2020,18:16,61.36,61.66,61.32,61.66, 15598
03/02/2020,18:17,61.68,61.73,61.45,61.46, 13787
03/02/2020,18:18,61.5,61.65,61.41,61.62, 16959
03/02/2020,18:19,61.61,61.65,61.43,61.43, 7706
03/02/2020,18:20,61.46,61.58,61.44,61.54, 5674
03/02/2020,18:21,61.54,61.71,61.5,61.71, 4916
03/02/2020,18:22,61.71,61.71,61.51,61.56, 3539
03/02/2020,18:23,61.59,61.6,61.44,61.51, 5226
03/02/2020,18:24,61.51,61.51,61.18,61.28, 7531
03/02/2020,18:25,61.25,61.46,61.25,61.46, 17732
03/02/2020,18:26,61.48,61.51,61.38,61.48, 12334
03/02/2020,18:27,61.51,61.77,61.46,61.52, 13438
03/02/2020,18:28,61.55,61.56,61.34,61.49, 31562
03/02/2020,18:29,61.55,61.69,61.55,61.64, 32600
03/02/2020,18:30,61.62,61.62,61.53,61.57, 3989
03/02/2020,18:31,61.57,61.62,61.53,61.6, 13918
03/02/2020,18:32,61.62,61.68,61.61,61.66, 4515
03/02/2020,18:33,61.63,61.69,61.56,61.67, 9740
03/02/2020,18:34,61.67,61.7,61.57,61.59, 3360
03/02/2020,18:35,61.62,61.64,61.56,61.63, 11412
03/02/2020,18:36,61.61,61.66,61.58,61.62, 10846
03/02/2020,18:37,61.67,61.79,61.67,61.71, 9633
03/02/2020,18:38,61.71,61.73,61.66,61.69, 11236
03/02/2020,18:39,61.67,61.74,61.65,61.71, 11843
03/02/2020,18:40,61.73,61.9,61.73,61.83, 27006
03/02/2020,18:41,61.85,61.86,61.74,61.82, 12729
03/02/2020,18:42,61.8,61.82,61.68,61.68, 4224
03/02/2020,18:43,61.65,61.66,61.55,61.66, 6165
03/02/2020,18:44,61.68,61.74,61.56,61.56, 5751
03/02/2020,18:45,61.55,61.56,61.46,61.53, 5261
03/02/2020,18:46,61.53,61.59,61.45,61.57, 3258
03/02/2020,18:47,61.62,61.71,61.56,61.57, 6824
03/02/2020,18:48,61.58,61.62,61.5,61.57, 9287
03/02/2020,18:49,61.59,61.63,61.53,61.53, 3955
03/02/2020,18:50,61.57,61.7,61.48,61.65, 12279
03/02/2020,18:51,61.66,61.72,61.66,61.7, 4715
03/02/2020,18:52,61.64,61.67,61.57,61.61, 4680
03/02/2020,18:53,61.59,61.72,61.59,61.72, 4375
03/02/2020,18:54,61.73,61.81,61.72,61.81, 1907
03/02/2020,18:55,61.86,61.9,61.76,61.82, 10748
03/02/2020,18:56,61.8,61.9,61.8,61.83, 3800
03/02/2020,18:57,61.8,61.84,61.78,61.82, 6300
03/02/2020,18:58,61.83,61.84,61.71,61.83, 7392
03/02/2020,18:59,61.86,61.86,61.71,61.74, 6900
03/02/2020,19:00,61.7,61.78,61.67,61.72, 4195
03/02/2020,19:01,61.74,61.84,61.67,61.82, 6573
03/02/2020,19:02,61.86,61.95,61.82,61.87, 5388
03/02/2020,19:03,61.87,61.9,61.8,61.85, 11000
03/02/2020,19:04,61.83,61.89,61.74,61.89, 3405
03/02/2020,19:05,61.88,61.89,61.84,61.86, 3853
03/02/2020,19:06,61.88,61.96,61.84,61.84, 4226
03/02/2020,19:07,61.81,61.85,61.76,61.85, 6921
03/02/2020,19:08,61.84,61.88,61.78,61.85, 4529
03/02/2020,19:09,61.88,61.92,61.75,61.77, 8900
03/02/2020,19:10,61.81,61.89,61.81,61.85, 1941
03/02/2020,19:11,61.82,61.84,61.78,61.8, 2109
03/02/2020,19:12,61.79,61.83,61.74,61.74, 3400
03/02/2020,19:13,61.78,61.78,61.65,61.65, 5500
03/02/2020,19:14,61.64,61.68,61.56,61.57, 8831
03/02/2020,19:15,61.58,61.65,61.57,61.6, 40578
03/02/2020,19:16,61.63,61.68,61.61,61.64, 1974
03/02/2020,19:17,61.6,61.63,61.56,61.56, 2986
03/02/2020,19:18,61.57,61.6,61.34,61.35, 17889
03/02/2020,19:19,61.34,61.38,61.26,61.27, 5676
03/02/2020,19:20,61.28,61.3,61.22,61.23, 4656
03/02/2020,19:21,61.24,61.33,61.2,61.27, 1900
03/02/2020,19:22,61.26,61.29,61.18,61.23, 3913
03/02/2020,19:23,61.18,61.18,61.15,61.16, 800
03/02/2020,19:24,61.15,61.19,61.14,61.14, 1900
03/02/2020,19:25,61.1,61.13,61.08,61.09, 8032
03/02/2020,19:26,61.09,61.14,61.07,61.1, 6278
03/02/2020,19:27,61.11,61.13,61.01,61.05, 4192
03/02/2020,19:28,61.08,61.09,60.91,60.94, 9458
03/02/2020,19:29,60.93,60.93,60.88,60.89, 5460
03/02/2020,19:30,60.91,61.03,60.9,61.01, 4360
03/02/2020,19:31,61.03,61.12,61,61.03, 5634
03/02/2020,19:32,61.01,61.03,60.92,60.94, 3920
03/02/2020,19:33,60.91,60.96,60.85,60.94, 6584
03/02/2020,19:34,60.94,61,60.91,60.95, 11098
03/02/2020,19:35,60.93,61.09,60.93,61.09, 7877
03/02/2020,19:36,61.06,61.1,60.99,61.03, 5088
03/02/2020,19:37,61.07,61.09,61,61.09, 4332
03/02/2020,19:38,61.12,61.15,61.07,61.1, 12188
03/02/2020,19:39,61.1,61.19,61.1,61.18, 7619
03/02/2020,19:40,61.19,61.21,61.17,61.21, 1138
03/02/2020,19:41,61.2,61.27,61.15,61.15, 4185
03/02/2020,19:42,61.16,61.26,61.15,61.26, 2381
03/02/2020,19:43,61.25,61.27,61.13,61.13, 4200
03/02/2020,19:44,61.15,61.18,61.09,61.15, 9746
03/02/2020,19:45,61.15,61.21,61.12,61.15, 6318
03/02/2020,19:46,61.14,61.21,61.14,61.17, 2469
03/02/2020,19:47,61.15,61.17,61.1,61.1, 4500
03/02/2020,19:48,61.08,61.09,61.02,61.03, 13523
03/02/2020,19:49,61,61.04,60.85,60.85, 8302
03/02/2020,19:50,60.86,60.86,60.75,60.82, 64389
03/02/2020,19:51,60.86,60.87,60.71,60.81, 13721
03/02/2020,19:52,60.8,60.81,60.72,60.72, 4400
03/02/2020,19:53,60.72,60.72,60.57,60.57, 5074
03/02/2020,19:54,60.53,60.55,60.48,60.49, 7171
03/02/2020,19:55,60.48,60.56,60.44,60.46, 7611
03/02/2020,19:56,60.5,60.51,60.37,60.39, 9832
03/02/2020,19:57,60.35,60.53,60.32,60.51, 6605
03/02/2020,19:58,60.53,60.72,60.51,60.71, 6326
03/02/2020,19:59,60.71,60.82,60.71,60.81, 8223
03/02/2020,20:00,60.82,60.94,60.82,60.9, 6960
03/02/2020,20:01,60.9,61.12,60.88,61.11, 14068
03/02/2020,20:02,61.12,61.17,61.1,61.16, 6717
03/02/2020,20:03,61.16,61.32,61.16,61.28, 7590
03/02/2020,20:04,61.27,61.29,61.2,61.25, 12463
03/02/2020,20:05,61.23,61.28,61.14,61.2, 6951
03/02/2020,20:06,61.2,61.26,61.18,61.21, 12493
03/02/2020,20:07,61.21,61.31,61.18,61.27, 13414
03/02/2020,20:08,61.23,61.36,61.23,61.36, 4321
03/02/2020,20:09,61.33,61.34,61.26,61.34, 6878
03/02/2020,20:10,61.36,61.52,61.35,61.5, 4849
03/02/2020,20:11,61.48,61.54,61.46,61.49, 8117
03/02/2020,20:12,61.49,61.49,61.3,61.32, 9932
03/02/2020,20:13,61.29,61.35,61.27,61.33, 6505
03/02/2020,20:14,61.33,61.44,61.29,61.38, 5198
03/02/2020,20:15,61.39,61.41,61.36,61.4, 3914
03/02/2020,20:16,61.4,61.45,61.35,61.35, 6625
03/02/2020,20:17,61.34,61.36,61.16,61.24, 5080
03/02/2020,20:18,61.23,61.35,61.2,61.21, 10195
03/02/2020,20:19,61.2,61.26,61.2,61.22, 2734
03/02/2020,20:20,61.19,61.21,61.1,61.1, 5634
03/02/2020,20:21,61.13,61.19,61.09,61.16, 5367
03/02/2020,20:22,61.2,61.25,61.13,61.17, 5490
03/02/2020,20:23,61.1,61.17,61.08,61.17, 6159
03/02/2020,20:24,61.15,61.19,61.06,61.09, 26992
03/02/2020,20:25,61.08,61.08,60.9,61, 21485
03/02/2020,20:26,61.01,61.01,60.84,60.86, 14945
03/02/2020,20:27,60.87,60.88,60.8,60.88, 10870
03/02/2020,20:28,60.89,60.97,60.83,60.97, 9654
03/02/2020,20:29,60.94,61.02,60.89,60.89, 9285
03/02/2020,20:30,60.86,60.86,60.71,60.78, 21647
03/02/2020,20:31,60.76,60.8,60.69,60.78, 15656
03/02/2020,20:32,60.74,60.78,60.61,60.63, 8954
03/02/2020,20:33,60.63,60.7,60.61,60.67, 8466
03/02/2020,20:34,60.64,60.72,60.61,60.67, 9090
03/02/2020,20:35,60.7,60.74,60.68,60.68, 4345
03/02/2020,20:36,60.68,60.71,60.52,60.64, 13026
03/02/2020,20:37,60.61,60.67,60.6,60.66, 20341
03/02/2020,20:38,60.66,60.67,60.56,60.6, 8376
03/02/2020,20:39,60.6,60.63,60.57,60.61, 6102
03/02/2020,20:40,60.61,60.61,60.42,60.43, 21021
03/02/2020,20:41,60.46,60.49,60.42,60.47, 4628
03/02/2020,20:43,60.41,60.45,60.36,60.42, 8169
03/02/2020,20:44,60.43,60.44,60.3,60.35, 10960
03/02/2020,20:45,60.34,60.39,60.19,60.19, 8591
03/02/2020,20:46,60.2,60.3,60.2,60.26, 13863
03/02/2020,20:47,60.26,60.34,60.26,60.34, 10146
03/02/2020,20:48,60.35,60.49,60.35,60.47, 7500
03/02/2020,20:49,60.49,60.59,60.47,60.55, 6702
03/02/2020,20:50,60.56,60.75,60.56,60.73, 7475
03/02/2020,20:51,60.76,60.76,60.66,60.73, 11590
03/02/2020,20:52,60.71,60.73,60.46,60.49, 18053
03/02/2020,20:53,60.5,60.63,60.46,60.61, 6727
03/02/2020,20:54,60.66,60.73,60.65,60.73, 13274
03/02/2020,20:55,60.76,60.76,60.68,60.71, 10010
03/02/2020,20:56,60.71,60.88,60.71,60.86, 13380
03/02/2020,20:57,60.87,60.88,60.8,60.82, 7958
03/02/2020,20:58,60.82,60.82,60.64,60.73, 18638
03/02/2020,20:59,60.77,60.78,60.59,60.67, 14671
03/02/2020,21:00,60.68,60.71,60.51,60.58, 14204
03/02/2020,21:01,60.55,60.72,60.51,60.72, 7310
03/02/2020,21:02,60.73,60.86,60.73,60.81, 8499
03/02/2020,21:03,60.8,60.91,60.79,60.89, 17049
03/02/2020,21:04,60.88,60.92,60.84,60.86, 8730
03/02/2020,21:05,60.88,61,60.85,60.93, 14491
03/02/2020,21:06,60.92,60.92,60.82,60.85, 24282
03/02/2020,21:07,60.85,60.92,60.84,60.87, 28824
03/02/2020,21:08,60.87,60.98,60.86,60.86, 16686
03/02/2020,21:09,60.87,60.92,60.83,60.91, 5793
03/02/2020,21:10,60.92,61.03,60.87,61.02, 8152
03/02/2020,21:11,61.04,61.04,60.88,60.92, 7471
03/02/2020,21:12,60.92,60.97,60.85,60.88, 10059
03/02/2020,21:13,60.83,60.86,60.76,60.8, 37917
03/02/2020,21:14,60.8,60.93,60.8,60.85, 16463
03/02/2020,21:15,60.87,60.91,60.78,60.78, 13910
03/02/2020,21:16,60.8,60.83,60.67,60.69, 11172
03/02/2020,21:17,60.69,60.8,60.66,60.79, 21020
03/02/2020,21:18,60.8,60.96,60.79,60.91, 11004
03/02/2020,21:19,60.91,60.95,60.85,60.88, 10673
03/02/2020,21:20,60.86,60.87,60.79,60.84, 7604
03/02/2020,21:21,60.84,60.84,60.77,60.8, 10901
03/02/2020,21:22,60.81,60.91,60.8,60.9, 8189
03/02/2020,21:23,60.94,60.96,60.88,60.94, 11586
03/02/2020,21:24,60.93,61.06,60.93,61.03, 7848
03/02/2020,21:25,61.01,61.1,61,61.1, 12561
03/02/2020,21:26,61.1,61.15,61.05,61.08, 15604
03/02/2020,21:27,61.07,61.11,61.01,61.09, 13521
03/02/2020,21:28,61.09,61.19,61.09,61.15, 9046
03/02/2020,21:29,61.15,61.17,61.06,61.07, 7450
03/02/2020,21:30,61.07,61.08,60.82,60.91, 20119
03/02/2020,21:31,60.91,61.03,60.91,60.96, 20976
03/02/2020,21:32,60.96,61.21,60.92,61.21, 21821
03/02/2020,21:33,61.22,61.23,61.16,61.21, 25427
03/02/2020,21:34,61.22,61.35,61.22,61.33, 34954
03/02/2020,21:35,61.33,61.46,61.32,61.35, 18227
03/02/2020,21:36,61.35,61.46,61.33,61.45, 23057
03/02/2020,21:37,61.46,61.55,61.46,61.52, 16376
03/02/2020,21:38,61.53,61.58,61.45,61.51, 20557
03/02/2020,21:39,61.51,61.65,61.51,61.65, 13128
03/02/2020,21:40,61.65,61.78,61.6,61.77, 31765
03/02/2020,21:41,61.75,61.83,61.72,61.78, 20130
03/02/2020,21:42,61.78,61.89,61.78,61.84, 31375
03/02/2020,21:43,61.82,62,61.78,61.99, 39620
03/02/2020,21:44,62.01,62.04,61.91,61.96, 32654
03/02/2020,21:45,61.93,61.95,61.83,61.92, 31452
03/02/2020,21:46,61.91,62,61.88,61.97, 45210
03/02/2020,21:47,61.97,62.08,61.86,62.08, 47107
03/02/2020,21:48,62.08,62.23,62.04,62.19, 19521
03/02/2020,21:49,62.18,62.23,62,62.03, 22264
03/02/2020,21:50,62.05,62.22,62.05,62.17, 29746
03/02/2020,21:51,62.18,62.29,62.12,62.27, 17377
03/02/2020,21:51,62.27,62.36,62.2,62.26, 23540
03/02/2020,21:52,62.27,62.4,62.26,62.35, 30578
03/02/2020,21:53,62.35,62.4,62.3,62.38, 31404
03/02/2020,21:54,62.38,62.47,62.33,62.47, 38523
03/02/2020,21:55,62.46,62.7,62.44,62.66, 24104
03/02/2020,21:55,62.68,62.79,62.64,62.78, 27540
03/02/2020,21:57,62.76,62.9,62.56,62.59, 45682
03/02/2020,21:58,62.6,62.73,62.58,62.65, 60350
03/02/2020,21:58,62.66,62.84,62.66,62.75, 65458
03/02/2020,21:59,62.76,62.82,62.66,62.8, 87604
03/02/2020,22:00,62.81,62.84,62.7,62.71, 63721
03/02/2020,22:00,62.72,62.88,62.7,62.75, 50513
03/02/2020,22:02,62.76,62.86,62.75,62.86, 748968
03/03/2020,15:31,62.97,63,62.84,62.89, 11353
03/03/2020,15:32,62.91,62.91,62.55,62.85, 26779
03/03/2020,15:33,62.9,63.14,62.87,63.03, 7622
03/03/2020,15:35,62.99,63.28,62.84,63.19, 23619
03/03/2020,15:36,63.1,63.43,63.06,63.19, 32833
03/03/2020,15:37,63.23,63.25,62.88,62.92, 48312
03/03/2020,15:39,62.99,63.14,62.87,62.94, 46574
03/03/2020,15:40,63.03,63.16,63.03,63.11, 10015
03/03/2020,15:41,63.15,63.49,63.15,63.46, 22017
03/03/2020,15:44,63.55,63.59,62.92,62.95, 32097
03/03/2020,15:47,62.92,63.18,62.83,62.9, 40803
03/03/2020,15:49,62.9,63.1,62.79,62.9, 46596
03/03/2020,15:51,62.88,62.99,62.84,62.84, 49854
03/03/2020,15:53,62.86,62.96,62.67,62.82, 55846
03/03/2020,15:53,62.81,62.82,62.8,62.82, 800
03/03/2020,15:56,62.82,63.01,62.73,62.84, 149170
03/03/2020,16:00,62.81,62.92,62,62.92, 81673
03/03/2020,16:02,63.02,64.7,62.9,64.69, 22481
03/03/2020,16:04,64.89,65.41,64.33,65.22, 26932
03/03/2020,16:06,65.15,65.35,64.94,64.94, 23111
03/03/2020,16:07,64.94,64.97,64.06,64.12, 19741
03/03/2020,16:09,64.16,64.57,63.84,64.23, 33428
03/03/2020,16:11,64.35,64.35,63.6,63.6, 15451
03/03/2020,16:13,63.52,63.54,62.65,62.65, 15775
03/03/2020,16:14,62.72,62.79,62.59,62.59, 2250
03/03/2020,16:17,62.57,62.88,62.46,62.56, 30234
03/03/2020,16:20,62.59,63.04,62.5,62.82, 31364
03/03/2020,16:25,62.74,64.05,62.74,63.94, 24268
03/03/2020,16:27,63.98,64.04,63.62,63.96, 19789
03/03/2020,16:29,63.99,64.24,63.94,63.99, 29712
03/03/2020,16:32,63.99,64.44,63.88,64.44, 14912
03/03/2020,16:34,64.35,64.63,64.28,64.48, 44441
03/03/2020,16:36,64.5,64.66,64.16,64.26, 23072
03/03/2020,16:38,64.26,64.41,64.2,64.38, 13986
03/03/2020,16:41,64.41,64.48,64.28,64.31, 21755
03/03/2020,16:43,64.36,64.89,64.36,64.69, 27163
03/03/2020,16:47,64.64,64.64,64.21,64.27, 18196
03/03/2020,16:51,64.25,64.31,63.91,63.94, 41762
03/03/2020,16:55,64.01,64.1,63.63,64.08, 61017
03/03/2020,16:59,64.06,64.41,64.03,64.33, 44335
03/03/2020,17:02,64.37,64.89,64.26,64.69, 59115
03/03/2020,17:06,64.68,64.68,63.85,63.98, 36301
03/03/2020,17:09,63.91,63.97,63.55,63.79, 34651
03/03/2020,17:13,63.81,63.95,63.31,63.33, 41947
03/03/2020,17:16,63.35,63.95,63.28,63.84, 46505
03/03/2020,17:19,63.84,64.13,63.82,63.96, 40634
03/03/2020,17:19,63.95,63.97,63.9,63.95, 2361
03/03/2020,17:46,63.49,63.72,63.46,63.65, 5507
03/03/2020,17:48,63.63,63.65,63.32,63.44, 74263
03/03/2020,17:50,63.44,63.5,63.13,63.24, 16491
03/03/2020,17:51,63.26,63.3,63.01,63.29, 15702
03/03/2020,17:53,63.23,63.41,63.07,63.33, 18575
03/03/2020,17:55,63.28,63.56,63.27,63.53, 22319
03/03/2020,17:57,63.48,63.48,63.26,63.28, 13936
03/03/2020,18:00,63.28,63.41,63.21,63.21, 20120
03/03/2020,18:01,63.16,63.3,63.06,63.18, 16365
03/03/2020,18:04,63.16,63.16,62.97,63.12, 14329
03/03/2020,18:06,63.08,63.4,63.06,63.4, 5405
03/03/2020,18:08,63.41,63.5,63.35,63.38, 14063
03/03/2020,18:10,63.46,63.62,63.38,63.57, 8066
03/03/2020,18:12,63.52,63.58,63.36,63.39, 5187
03/03/2020,18:15,63.44,63.51,63.26,63.26, 11701
03/03/2020,18:17,63.21,63.31,63.1,63.27, 11579
03/03/2020,18:19,63.26,63.31,63.16,63.21, 4351
03/03/2020,18:20,63.22,63.31,63.2,63.29, 2600
03/03/2020,18:21,63.3,63.32,63.19,63.23, 9063
03/03/2020,18:22,63.19,63.25,63.12,63.23, 4262
03/03/2020,18:23,63.3,63.3,63.11,63.24, 10218
03/03/2020,18:24,63.23,63.26,63.17,63.23, 6942
03/03/2020,18:25,63.21,63.29,63.19,63.28, 11611
03/03/2020,18:26,63.32,63.47,63.32,63.46, 4938
03/03/2020,18:27,63.51,63.53,63.34,63.34, 4656
03/03/2020,18:28,63.35,63.35,63.12,63.14, 3700
03/03/2020,18:29,63.13,63.16,63,63.07, 2888
03/03/2020,18:30,63.07,63.15,63.03,63.05, 9210
03/03/2020,18:31,63.05,63.19,63.05,63.11, 3510
03/03/2020,18:32,63.15,63.16,63.05,63.09, 3307
03/03/2020,18:33,63.1,63.1,62.97,62.97, 4033
03/03/2020,18:34,62.97,63.01,62.92,62.94, 6805
03/03/2020,18:35,62.94,63.03,62.89,62.89, 2528
03/03/2020,18:36,62.87,62.87,62.81,62.85, 2398
03/03/2020,18:37,62.8,62.82,62.75,62.8, 3696
03/03/2020,18:38,62.72,62.81,62.68,62.8, 3100
03/03/2020,18:39,62.84,62.85,62.73,62.74, 3657
03/03/2020,18:40,62.71,62.82,62.71,62.82, 4811
03/03/2020,18:41,62.84,63,62.84,62.99, 9731
03/03/2020,18:42,62.99,63.09,62.99,63.05, 2701
03/03/2020,18:43,63,63,62.86,62.86, 3471
03/03/2020,18:44,62.92,62.96,62.86,62.96, 7727
03/03/2020,18:45,62.93,62.98,62.91,62.91, 4400
03/03/2020,18:46,62.89,62.93,62.82,62.93, 3871
03/03/2020,18:47,62.9,63.04,62.87,62.98, 4810
03/03/2020,18:48,63.03,63.03,62.94,62.95, 4647
03/03/2020,18:49,62.96,63.04,62.94,62.97, 5446
03/03/2020,18:50,63,63.07,62.97,62.97, 4007
03/03/2020,18:51,62.95,63.01,62.82,62.82, 3050
03/03/2020,18:52,62.84,62.92,62.84,62.89, 2550
03/03/2020,18:53,62.88,62.88,62.74,62.74, 3836
03/03/2020,18:54,62.75,62.79,62.71,62.78, 3300
03/03/2020,18:55,62.75,62.82,62.73,62.74, 9058
03/03/2020,18:56,62.69,62.74,62.65,62.74, 3483
03/03/2020,18:57,62.71,62.73,62.61,62.65, 3292
03/03/2020,18:58,62.65,62.65,62.56,62.59, 3774
03/03/2020,18:59,62.6,62.71,62.6,62.71, 4478
03/03/2020,19:00,62.71,62.78,62.65,62.73, 6207
03/03/2020,19:01,62.73,62.78,62.61,62.61, 3502
03/03/2020,19:02,62.64,62.65,62.54,62.55, 5084
03/03/2020,19:03,62.59,62.64,62.56,62.6, 1779
03/03/2020,19:04,62.59,62.59,62.5,62.58, 5847
03/03/2020,19:05,62.61,62.61,62.35,62.41, 5524
03/03/2020,19:06,62.46,62.51,62.41,62.44, 2501
03/03/2020,19:07,62.44,62.61,62.42,62.58, 2204
03/03/2020,19:08,62.56,62.65,62.56,62.62, 1300
03/03/2020,19:09,62.58,62.62,62.55,62.62, 2557
03/03/2020,19:10,62.62,62.67,62.57,62.59, 2005
03/03/2020,19:11,62.64,62.64,62.51,62.6, 3188
03/03/2020,19:12,62.58,62.58,62.45,62.45, 2567
03/03/2020,19:13,62.43,62.54,62.43,62.53, 2900
03/03/2020,19:14,62.52,62.55,62.38,62.38, 3841
03/03/2020,19:15,62.38,62.41,62.31,62.33, 3227
03/03/2020,19:16,62.32,62.46,62.32,62.4, 2750
03/03/2020,19:17,62.38,62.49,62.35,62.39, 6054
03/03/2020,19:18,62.41,62.41,62.3,62.31, 6515
03/03/2020,19:19,62.31,62.32,62.19,62.19, 3562
03/03/2020,19:20,62.2,62.29,62.09,62.09, 5800
03/03/2020,19:21,62.11,62.25,62.04,62.25, 7859
03/03/2020,19:22,62.21,62.27,62.1,62.16, 6714
03/03/2020,19:23,62.14,62.14,62,62.11, 7075
03/03/2020,19:24,62.14,62.19,62.08,62.1, 12563
03/03/2020,19:25,62.14,62.19,62.06,62.12, 3403
03/03/2020,19:26,62.1,62.14,62.1,62.13, 4649
03/03/2020,19:27,62.09,62.11,61.93,61.93, 4536
03/03/2020,19:28,61.88,61.97,61.76,61.79, 5778
03/03/2020,19:29,61.78,61.92,61.77,61.87, 6233
03/03/2020,19:30,61.86,62.03,61.85,62.03, 4369
03/03/2020,19:31,62.06,62.12,62.02,62.04, 6330
03/03/2020,19:32,62.04,62.14,62.04,62.08, 2588
03/03/2020,19:33,62.05,62.09,61.94,62, 4018
03/03/2020,19:34,62,62.02,61.94,62, 5646
03/03/2020,19:35,62.05,62.21,62.01,62.19, 4898
03/03/2020,19:36,62.22,62.35,62.1,62.19, 6288
03/03/2020,19:37,62.17,62.27,62.15,62.15, 4512
03/03/2020,19:38,62.11,62.13,61.98,62.02, 7147
03/03/2020,19:39,62.01,62.1,61.96,62.04, 8354
03/03/2020,19:40,62.01,62.07,61.96,62.03, 1656
03/03/2020,19:41,62.03,62.04,61.95,62.02, 4410
03/03/2020,19:42,62.04,62.05,61.89,61.89, 3900
03/03/2020,19:43,61.86,61.89,61.77,61.83, 5951
03/03/2020,19:44,61.81,61.86,61.67,61.67, 9893
03/03/2020,19:45,61.65,61.73,61.62,61.65, 5506
03/03/2020,19:46,61.69,61.72,61.55,61.65, 6954
03/03/2020,19:47,61.64,61.84,61.6,61.79, 6058
03/03/2020,19:48,61.8,61.84,61.62,61.65, 5383
03/03/2020,19:49,61.64,61.64,61.51,61.53, 8969
03/03/2020,19:50,61.59,61.59,61.41,61.41, 7116
03/03/2020,19:51,61.41,61.49,61.38,61.49, 7691
03/03/2020,19:52,61.47,61.55,61.4,61.55, 5080
03/03/2020,19:53,61.54,61.55,61.45,61.45, 7935
03/03/2020,19:54,61.46,61.51,61.38,61.49, 10901
03/03/2020,19:55,61.48,61.51,61.42,61.46, 2945
03/03/2020,19:56,61.46,61.55,61.43,61.49, 4706
03/03/2020,19:57,61.52,61.52,61.39,61.42, 4800
03/03/2020,19:58,61.43,61.49,61.4,61.49, 5335
03/03/2020,19:59,61.53,61.73,61.53,61.73, 6008
03/03/2020,20:00,61.79,61.79,61.5,61.5, 6281
03/03/2020,20:01,61.5,61.67,61.39,61.67, 8218
03/03/2020,20:02,61.72,61.76,61.59,61.69, 12912
03/03/2020,20:03,61.71,61.8,61.62,61.7, 3201
03/03/2020,20:04,61.66,61.75,61.6,61.62, 6328
03/03/2020,20:05,61.6,61.64,61.38,61.42, 7075
03/03/2020,20:06,61.43,61.43,61.36,61.37, 5410
03/03/2020,20:07,61.35,61.35,61.23,61.29, 5692
03/03/2020,20:08,61.27,61.28,61.21,61.27, 8496
03/03/2020,20:09,61.28,61.35,61.1,61.21, 6121
03/03/2020,20:10,61.23,61.35,61.09,61.09, 3421
03/03/2020,20:11,61.02,61.1,60.89,61.02, 13416
03/03/2020,20:12,61.01,61.12,60.98,61.12, 7361
03/03/2020,20:12,61.14,61.48,61.14,61.46, 6358
03/03/2020,20:14,61.52,61.52,61.29,61.41, 5763
03/03/2020,20:15,61.39,61.39,61.27,61.28, 4966
03/03/2020,20:16,61.28,61.52,61.24,61.37, 7635
03/03/2020,20:17,61.37,61.4,61.25,61.4, 5591
03/03/2020,20:18,61.35,61.35,61.19,61.28, 7065
03/03/2020,20:19,61.25,61.34,61.16,61.2, 6084
03/03/2020,20:20,61.2,61.39,61.18,61.35, 8030
03/03/2020,20:21,61.35,61.44,61.28,61.31, 10584
03/03/2020,20:22,61.32,61.4,61.19,61.4, 3875
03/03/2020,20:23,61.41,61.67,61.41,61.63, 14225
03/03/2020,20:24,61.64,61.77,61.49,61.49, 5111
03/03/2020,20:25,61.45,61.53,61.35,61.39, 10005
03/03/2020,20:26,61.4,61.47,61.29,61.47, 4000
03/03/2020,20:27,61.48,61.64,61.46,61.56, 3195
03/03/2020,20:28,61.57,61.59,61.49,61.53, 5295
03/03/2020,20:29,61.59,61.82,61.59,61.78, 7064
03/03/2020,20:30,61.8,61.92,61.8,61.91, 2314
03/03/2020,20:31,61.99,61.99,61.81,61.81, 20931
03/03/2020,20:32,61.87,61.95,61.81,61.94, 26479
03/03/2020,20:33,62,62.04,61.91,62.01, 7854
03/03/2020,20:34,62.01,62.08,61.98,61.99, 14700
03/03/2020,20:35,61.92,61.97,61.84,61.84, 5248
03/03/2020,20:36,61.82,61.93,61.79,61.79, 5649
03/03/2020,20:37,61.79,61.79,61.6,61.66, 7235
03/03/2020,20:38,61.64,61.85,61.6,61.85, 3155
03/03/2020,20:39,61.9,61.92,61.72,61.72, 5564
03/03/2020,20:40,61.76,61.79,61.61,61.63, 3593
03/03/2020,20:41,61.57,61.57,61.4,61.48, 6736
03/03/2020,20:42,61.49,61.54,61.43,61.54, 3637
03/03/2020,20:43,61.52,61.57,61.39,61.43, 5849
03/03/2020,20:44,61.43,61.53,61.39,61.49, 7398
03/03/2020,20:45,61.55,61.69,61.52,61.52, 5066
03/03/2020,20:46,61.5,61.59,61.5,61.59, 6237
03/03/2020,20:47,61.6,61.88,61.59,61.87, 4100
03/03/2020,20:48,61.88,61.92,61.78,61.82, 3249
03/03/2020,20:49,61.79,61.89,61.73,61.78, 8804
03/03/2020,20:50,61.79,62,61.74,62, 4496
03/03/2020,20:51,62.01,62.13,62.01,62.09, 6321
03/03/2020,20:52,62.06,62.13,61.99,62.07, 5515
03/03/2020,20:53,62.03,62.12,61.96,62.07, 8070
03/03/2020,20:54,62.12,62.17,62.1,62.14, 5095
03/03/2020,20:55,62.14,62.2,62.05,62.2, 3832
03/03/2020,20:56,62.19,62.33,62.19,62.3, 9869
03/03/2020,20:57,62.31,62.4,62.3,62.31, 3920
03/03/2020,20:58,62.24,62.33,62.14,62.14, 7076
03/03/2020,20:59,62.16,62.3,62.12,62.16, 4958
03/03/2020,21:00,62.13,62.13,62.03,62.07, 4536
03/03/2020,21:01,62.09,62.24,62.05,62.2, 4836
03/03/2020,21:02,62.19,62.43,62.12,62.41, 4013
03/03/2020,21:03,62.44,62.47,62.33,62.36, 4653
03/03/2020,21:04,62.36,62.43,62.29,62.42, 5714
03/03/2020,21:05,62.41,62.59,62.41,62.59, 5361
03/03/2020,21:06,62.6,62.62,62.49,62.51, 8028
03/03/2020,21:07,62.46,62.46,62.39,62.39, 4906
03/03/2020,21:08,62.41,62.46,62.35,62.36, 11519
03/03/2020,21:09,62.37,62.43,62.35,62.39, 2902
03/03/2020,21:10,62.37,62.43,62.32,62.43, 6802
03/03/2020,21:11,62.42,62.47,62.38,62.41, 5506
03/03/2020,21:12,62.41,62.51,62.35,62.51, 6743
03/03/2020,21:13,62.55,62.69,62.51,62.69, 3935
03/03/2020,21:14,62.7,62.7,62.58,62.59, 8635
03/03/2020,21:15,62.59,62.76,62.59,62.74, 4289
03/03/2020,21:16,62.75,62.77,62.66,62.67, 4936
03/03/2020,21:17,62.63,62.8,62.62,62.73, 5662
03/03/2020,21:18,62.73,62.76,62.64,62.76, 5756
03/03/2020,21:19,62.8,62.9,62.75,62.89, 6944
03/03/2020,21:20,62.92,62.98,62.89,62.93, 9969
03/03/2020,21:21,62.97,62.98,62.81,62.81, 11260
03/03/2020,21:22,62.83,62.83,62.66,62.71, 8247
03/03/2020,21:23,62.71,62.78,62.68,62.75, 8287
03/03/2020,21:24,62.74,62.77,62.6,62.6, 16482
03/03/2020,21:25,62.61,62.7,62.54,62.66, 12487
03/03/2020,21:26,62.64,62.68,62.57,62.67, 13027
03/03/2020,21:27,62.69,62.79,62.65,62.75, 7851
03/03/2020,21:28,62.77,62.99,62.77,62.99, 3300
03/03/2020,21:29,62.99,63.09,62.95,63.03, 11009
03/03/2020,21:30,63.03,63.16,63.03,63.11, 10060
03/03/2020,21:31,63.1,63.23,63.08,63.16, 17839
03/03/2020,21:32,63.15,63.18,62.96,63.02, 15262
03/03/2020,21:33,63.04,63.04,62.8,62.8, 15093
03/03/2020,21:34,62.81,62.88,62.7,62.7, 16130
03/03/2020,21:35,62.71,62.8,62.67,62.76, 13282
03/03/2020,21:36,62.77,62.97,62.77,62.89, 17231
03/03/2020,21:37,62.92,62.93,62.76,62.85, 16839
03/03/2020,21:38,62.84,62.85,62.71,62.71, 10003
03/03/2020,21:39,62.67,62.72,62.58,62.6, 18033
03/03/2020,21:40,62.61,62.66,62.52,62.53, 8455
03/03/2020,21:41,62.5,62.59,62.44,62.56, 19416
03/03/2020,21:42,62.59,62.81,62.59,62.81, 12084
03/03/2020,21:43,62.76,62.98,62.75,62.93, 8657
03/03/2020,21:44,62.9,63.15,62.85,63.03, 13900
03/03/2020,21:45,63,63.26,62.98,63.21, 13097
03/03/2020,21:46,63.17,63.23,63.02,63.04, 15183
03/03/2020,21:47,63.04,63.36,62.9,63.23, 12227
03/03/2020,21:48,63.26,63.36,63.12,63.15, 16893
03/03/2020,21:49,63.13,63.24,62.97,63.24, 11467
03/03/2020,21:50,63.23,63.25,62.91,62.92, 12665
03/03/2020,21:51,62.97,62.97,62.59,62.64, 17161
03/03/2020,21:52,62.64,62.72,62.58,62.67, 21333
03/03/2020,21:53,62.63,62.72,62.55,62.59, 14794
03/03/2020,21:54,62.6,62.61,62.43,62.43, 30050
03/03/2020,21:55,62.43,62.52,62.37,62.51, 23441
03/03/2020,21:55,62.51,62.88,62.51,62.78, 19639
03/03/2020,21:56,62.78,63.02,62.7,62.97, 14416
03/03/2020,21:58,62.82,62.84,62.53,62.53, 11156
03/03/2020,21:59,62.54,62.65,62.5,62.56, 26547
03/03/2020,22:00,62.55,62.61,62.43,62.43, 59050
03/03/2020,22:00,62.43,62.59,62.42,62.48, 48985
03/03/2020,22:02,62.43,62.44,62.34,62.43, 681105
03/04/2020,15:33,63.62,63.91,63.09,63.18, 61351
03/04/2020,15:34,63.06,63.16,63.06,63.08, 700
03/04/2020,15:34,63.08,63.18,63.08,63.18, 800
03/04/2020,15:36,63.09,63.24,62.79,62.96, 12818
03/04/2020,15:39,62.88,63.48,62.8,63.31, 43333
03/04/2020,15:39,63.39,63.4,63.2,63.27, 3121
03/04/2020,15:43,63.29,63.96,63.16,63.92, 40399
03/04/2020,15:46,63.95,63.98,63.6,63.74, 18991
03/04/2020,15:47,63.65,63.74,63.54,63.64, 9346
03/04/2020,15:50,63.65,63.78,63.47,63.61, 11222
03/04/2020,15:54,63.56,63.7,63.32,63.48, 16252
03/04/2020,15:56,63.6,63.6,63.3,63.31, 11445
03/04/2020,15:57,63.27,63.38,63.26,63.3, 6669
03/04/2020,16:01,63.32,63.37,63.04,63.16, 15732
03/04/2020,16:05,63.1,63.56,63.1,63.27, 35609
03/04/2020,16:07,63.33,63.34,63.15,63.28, 16977
03/04/2020,16:11,63.28,63.81,63.28,63.62, 31535
03/04/2020,16:15,63.54,63.84,63.48,63.84, 27601
03/04/2020,16:17,63.8,64.03,63.8,64.03, 17975
03/04/2020,16:17,64.04,64.14,64.03,64.07, 6414
03/04/2020,16:21,64.07,64.18,63.99,64.1, 20848
03/04/2020,16:25,64.09,64.5,64.08,64.26, 28550
03/04/2020,16:25,64.25,64.25,64.18,64.22, 2331
03/04/2020,16:29,64.22,64.4,64.08,64.16, 29794
03/04/2020,16:33,64.22,64.35,64.05,64.05, 32475
03/04/2020,16:34,64.05,64.16,63.86,63.86, 9388
03/04/2020,16:36,63.93,63.93,63.69,63.77, 9349
03/04/2020,16:41,63.8,63.86,63.39,63.39, 56768
03/04/2020,16:42,63.35,63.54,63.35,63.5, 8839
03/04/2020,16:47,63.53,63.72,63.44,63.65, 24822
03/04/2020,16:51,63.68,63.7,63.5,63.59, 23707
03/04/2020,16:53,63.54,63.54,63.35,63.46, 33304
03/04/2020,16:58,63.44,63.6,63.25,63.42, 35670
03/04/2020,16:59,63.42,63.45,63.37,63.44, 7098
03/04/2020,17:00,63.44,63.48,63.36,63.36, 17490
03/04/2020,17:03,63.35,63.63,63.24,63.47, 25566
03/04/2020,17:06,63.48,63.61,63.37,63.52, 19134
03/04/2020,17:07,63.53,63.69,63.53,63.63, 7907
03/04/2020,17:09,63.67,63.67,63.42,63.43, 9159
03/04/2020,17:11,63.39,63.61,63.36,63.57, 4707
03/04/2020,17:14,63.59,63.7,63.55,63.63, 16985
03/04/2020,17:16,63.63,63.64,63.55,63.6, 7100
03/04/2020,17:18,63.6,63.63,63.46,63.54, 4884
03/04/2020,17:20,63.53,63.6,63.39,63.39, 26442
03/04/2020,17:21,63.4,63.51,63.3,63.32, 10164
03/04/2020,17:23,63.31,63.35,63.02,63.05, 27012
03/04/2020,17:25,63.04,63.2,63.04,63.12, 12320
03/04/2020,17:26,63.12,63.22,63.08,63.17, 8394
03/04/2020,17:28,63.18,63.23,63.02,63.06, 6372
03/04/2020,17:29,63.03,63.06,62.94,63.01, 21459
03/04/2020,17:31,63.04,63.06,62.96,62.96, 15282
03/04/2020,17:31,63,63.2,62.97,63.12, 4700
03/04/2020,17:33,63.15,63.15,62.79,62.85, 25032
03/04/2020,17:35,62.84,63.01,62.75,62.9, 9457
03/04/2020,17:38,62.89,62.89,62.7,62.77, 28294
03/04/2020,17:40,62.77,62.88,62.73,62.8, 28711
03/04/2020,17:41,62.82,62.86,62.68,62.71, 4043
03/04/2020,17:42,62.71,62.83,62.71,62.74, 1949
03/04/2020,17:43,62.73,62.73,62.67,62.72, 7412
03/04/2020,17:44,62.71,62.71,62.55,62.58, 3207
03/04/2020,17:45,62.61,62.74,62.61,62.74, 4157
03/04/2020,17:46,62.75,62.75,62.66,62.73, 2764
03/04/2020,17:47,62.75,62.81,62.75,62.75, 3600
03/04/2020,17:48,62.73,62.78,62.66,62.73, 5984
03/04/2020,17:49,62.74,62.74,62.66,62.7, 3006
03/04/2020,17:50,62.71,62.78,62.58,62.58, 3200
03/04/2020,17:51,62.61,62.64,62.52,62.56, 5700
03/04/2020,17:52,62.55,62.55,62.42,62.47, 5903
03/04/2020,17:53,62.47,62.61,62.47,62.51, 3703
03/04/2020,17:54,62.48,62.49,62.3,62.36, 8752
03/04/2020,17:55,62.4,62.46,62.34,62.34, 7531
03/04/2020,17:56,62.31,62.45,62.28,62.29, 5262
03/04/2020,17:57,62.32,62.52,62.32,62.51, 3452
03/04/2020,17:58,62.53,62.59,62.5,62.56, 3777
03/04/2020,17:59,62.57,62.66,62.56,62.65, 12199
03/04/2020,18:00,62.63,62.72,62.63,62.72, 2100
03/04/2020,18:01,62.75,62.87,62.66,62.74, 10300
03/04/2020,18:02,62.79,62.97,62.79,62.97, 4409
03/04/2020,18:03,62.97,62.99,62.82,62.89, 3329
03/04/2020,18:04,62.89,62.89,62.79,62.81, 3982
03/04/2020,18:05,62.8,62.86,62.75,62.84, 8172
03/04/2020,18:06,62.84,62.92,62.82,62.88, 3448
03/04/2020,18:07,62.84,62.9,62.82,62.88, 2150
03/04/2020,18:07,62.92,62.93,62.89,62.89, 4786
03/04/2020,18:09,62.95,63.03,62.85,62.98, 25431
03/04/2020,18:10,63,63,62.89,62.97, 4547
03/04/2020,18:11,62.96,63.15,62.96,63.15, 8362
03/04/2020,18:12,63.15,63.19,63.13,63.18, 2191
03/04/2020,18:13,63.19,63.19,63.06,63.08, 14628
03/04/2020,18:14,63.1,63.14,63.05,63.1, 7889
03/04/2020,18:15,63.06,63.18,63.06,63.18, 768
03/04/2020,18:16,63.18,63.21,63.11,63.11, 3622
03/04/2020,18:17,63.14,63.25,63.12,63.22, 1911
03/04/2020,18:18,63.27,63.34,63.26,63.34, 4058
03/04/2020,18:19,63.3,63.3,63.18,63.18, 3814
03/04/2020,18:20,63.13,63.13,63.1,63.11, 1900
03/04/2020,18:21,63.13,63.24,63.1,63.22, 3672
03/04/2020,18:22,63.26,63.27,63.12,63.15, 5340
03/04/2020,18:23,63.14,63.14,63.07,63.09, 2000
03/04/2020,18:24,63.08,63.11,63.05,63.1, 1200
03/04/2020,18:25,63.11,63.21,63.11,63.18, 3371
03/04/2020,18:26,63.21,63.25,63.2,63.21, 1310
03/04/2020,18:27,63.23,63.28,63.18,63.25, 7472
03/04/2020,18:28,63.24,63.24,63.16,63.16, 2137
03/04/2020,18:29,63.17,63.24,63.13,63.22, 7418
03/04/2020,18:30,63.26,63.27,63.22,63.27, 12841
03/04/2020,18:31,63.25,63.37,63.25,63.25, 22244
03/04/2020,18:32,63.26,63.34,63.26,63.27, 3178
03/04/2020,18:33,63.31,63.34,63.25,63.28, 4299
03/04/2020,18:34,63.36,63.46,63.36,63.42, 11208
03/04/2020,18:35,63.45,63.45,63.33,63.33, 4175
03/04/2020,18:36,63.32,63.38,63.3,63.38, 2446
03/04/2020,18:37,63.37,63.44,63.35,63.35, 13125
03/04/2020,18:38,63.33,63.42,63.29,63.38, 14966
03/04/2020,18:39,63.34,63.41,63.32,63.41, 10528
03/04/2020,18:40,63.44,63.44,63.37,63.39, 2747
03/04/2020,18:41,63.37,63.48,63.37,63.38, 27822
03/04/2020,18:42,63.4,63.48,63.4,63.43, 6038
03/04/2020,18:43,63.4,63.42,63.33,63.41, 16835
03/04/2020,18:44,63.37,63.46,63.36,63.44, 10068
03/04/2020,18:45,63.44,63.44,63.33,63.35, 12282
03/04/2020,18:46,63.37,63.42,63.36,63.4, 13018
03/04/2020,18:47,63.4,63.52,63.39,63.52, 7571
03/04/2020,18:48,63.49,63.6,63.48,63.55, 6979
03/04/2020,18:49,63.54,63.61,63.51,63.6, 8046
03/04/2020,18:50,63.62,63.71,63.57,63.69, 10963
03/04/2020,18:51,63.71,63.75,63.68,63.68, 6820
03/04/2020,18:52,63.7,63.74,63.68,63.68, 4294
03/04/2020,18:53,63.69,63.82,63.69,63.82, 4726
03/04/2020,18:54,63.81,63.81,63.71,63.79, 18608
03/04/2020,18:55,63.75,63.75,63.7,63.74, 3500
03/04/2020,18:56,63.75,63.75,63.69,63.73, 4765
03/04/2020,18:57,63.7,63.7,63.61,63.64, 4713
03/04/2020,18:58,63.61,63.64,63.58,63.59, 5633
03/04/2020,18:59,63.6,63.63,63.54,63.54, 2321
03/04/2020,19:00,63.55,63.55,63.44,63.5, 18100
03/04/2020,19:01,63.52,63.59,63.52,63.57, 5621
03/04/2020,19:02,63.57,63.57,63.53,63.56, 6700
03/04/2020,19:03,63.57,63.6,63.53,63.55, 15447
03/04/2020,19:04,63.57,63.61,63.55,63.55, 2739
03/04/2020,19:05,63.6,63.64,63.58,63.61, 3355
03/04/2020,19:06,63.63,63.81,63.63,63.77, 5051
03/04/2020,19:07,63.8,63.88,63.8,63.88, 2232
03/04/2020,19:08,63.88,63.9,63.85,63.9, 4804
03/04/2020,19:09,63.86,63.9,63.69,63.7, 7851
03/04/2020,19:10,63.7,63.85,63.67,63.85, 5757
03/04/2020,19:11,63.84,63.88,63.82,63.83, 7483
03/04/2020,19:12,63.8,63.83,63.72,63.72, 10062
03/04/2020,19:13,63.72,63.73,63.68,63.69, 3222
03/04/2020,19:14,63.67,63.67,63.53,63.54, 2700
03/04/2020,19:15,63.53,63.58,63.49,63.55, 4363
03/04/2020,19:16,63.54,63.6,63.51,63.6, 47601
03/04/2020,19:17,63.62,63.63,63.6,63.63, 1111
03/04/2020,19:18,63.71,63.76,63.64,63.69, 6823
03/04/2020,19:19,63.72,63.73,63.43,63.46, 36552
03/04/2020,19:20,63.45,63.57,63.43,63.56, 19757
03/04/2020,19:21,63.58,63.68,63.55,63.63, 4870
03/04/2020,19:22,63.64,63.68,63.63,63.68, 1315
03/04/2020,19:23,63.69,63.8,63.69,63.8, 7373
03/04/2020,19:24,63.83,63.84,63.79,63.8, 3826
03/04/2020,19:25,63.86,63.87,63.8,63.8, 2311
03/04/2020,19:26,63.79,63.8,63.78,63.79, 1051
03/04/2020,19:27,63.78,63.82,63.71,63.71, 5246
03/04/2020,19:28,63.74,63.79,63.69,63.79, 4850
03/04/2020,19:29,63.78,63.82,63.76,63.81, 1973
03/04/2020,19:30,63.8,63.8,63.75,63.78, 2543
03/04/2020,19:31,63.79,63.8,63.75,63.78, 7162
03/04/2020,19:32,63.79,63.86,63.74,63.86, 10003
03/04/2020,19:33,63.87,63.96,63.85,63.85, 5672
03/04/2020,19:34,63.85,63.86,63.8,63.86, 1789
03/04/2020,19:35,63.84,63.86,63.78,63.82, 1951
03/04/2020,19:36,63.79,63.91,63.79,63.87, 994
03/04/2020,19:37,63.89,63.92,63.82,63.82, 3858
03/04/2020,19:38,63.83,63.89,63.78,63.89, 1764
03/04/2020,19:38,63.9,63.9,63.81,63.81, 1000
03/04/2020,19:40,63.84,63.84,63.76,63.76, 6408
03/04/2020,19:41,63.73,63.76,63.68,63.71, 4178
03/04/2020,19:42,63.72,63.75,63.72,63.72, 995
03/04/2020,19:43,63.75,63.75,63.66,63.66, 2771
03/04/2020,19:44,63.68,63.71,63.66,63.67, 3036
03/04/2020,19:45,63.65,63.7,63.62,63.69, 3707
03/04/2020,19:46,63.67,63.69,63.59,63.63, 3016
03/04/2020,19:47,63.59,63.67,63.59,63.67, 6938
03/04/2020,19:48,63.64,63.78,63.64,63.76, 4386
03/04/2020,19:49,63.76,63.79,63.73,63.77, 1846
03/04/2020,19:50,63.79,63.86,63.74,63.86, 2854
03/04/2020,19:51,63.87,63.89,63.87,63.89, 2211
03/04/2020,19:52,63.87,63.94,63.86,63.91, 7910
03/04/2020,19:53,63.95,63.95,63.91,63.94, 2626
03/04/2020,19:54,63.95,63.96,63.89,63.91, 5130
03/04/2020,19:55,63.93,64,63.92,63.93, 2923
03/04/2020,19:56,63.93,64,63.93,63.98, 6299
03/04/2020,19:57,63.98,64.06,63.98,64.03, 18646
03/04/2020,19:58,64.01,64.05,63.97,64.05, 9155
03/04/2020,19:59,64.03,64.03,63.94,63.95, 11746
03/04/2020,20:00,63.94,63.94,63.9,63.92, 4859
03/04/2020,20:01,63.93,63.93,63.88,63.92, 5356
03/04/2020,20:02,63.92,63.97,63.91,63.91, 6061
03/04/2020,20:03,63.92,63.92,63.79,63.8, 16730
03/04/2020,20:04,63.8,63.85,63.72,63.83, 20652
03/04/2020,20:05,63.84,63.84,63.79,63.82, 2324
03/04/2020,20:06,63.82,63.83,63.74,63.74, 4995
03/04/2020,20:07,63.76,63.82,63.75,63.82, 3714
03/04/2020,20:08,63.82,63.83,63.79,63.83, 3637
03/04/2020,20:09,63.83,63.94,63.82,63.92, 9388
03/04/2020,20:10,63.92,63.92,63.86,63.92, 2064
03/04/2020,20:11,63.93,63.94,63.89,63.94, 14590
03/04/2020,20:12,63.94,63.94,63.89,63.93, 5783
03/04/2020,20:12,63.92,63.92,63.89,63.89, 1978
03/04/2020,20:14,63.88,63.89,63.82,63.86, 5069
03/04/2020,20:15,63.87,63.92,63.87,63.88, 1862
03/04/2020,20:16,63.88,63.9,63.84,63.88, 3117
03/04/2020,20:17,63.87,63.95,63.84,63.94, 6354
03/04/2020,20:18,63.95,63.97,63.93,63.96, 6515
03/04/2020,20:19,63.95,64,63.9,63.92, 8111
03/04/2020,20:20,63.92,63.93,63.86,63.91, 12655
03/04/2020,20:21,63.93,63.96,63.84,63.84, 11619
03/04/2020,20:22,63.86,63.9,63.85,63.88, 37989
03/04/2020,20:23,63.9,63.9,63.76,63.77, 40516
03/04/2020,20:24,63.76,63.8,63.71,63.71, 7053
03/04/2020,20:25,63.7,63.76,63.69,63.73, 4778
03/04/2020,20:26,63.74,63.75,63.73,63.73, 3021
03/04/2020,20:27,63.71,63.83,63.65,63.83, 7970
03/04/2020,20:28,63.83,63.9,63.82,63.84, 5073
03/04/2020,20:29,63.85,63.85,63.68,63.69, 5933
03/04/2020,20:30,63.68,63.78,63.67,63.73, 5085
03/04/2020,20:31,63.74,63.86,63.71,63.85, 2080
03/04/2020,20:32,63.84,63.9,63.84,63.86, 4134
03/04/2020,20:33,63.85,63.85,63.82,63.83, 5860
03/04/2020,20:34,63.82,63.91,63.82,63.9, 4702
03/04/2020,20:35,63.88,63.96,63.88,63.94, 13344
03/04/2020,20:36,63.97,63.98,63.85,63.85, 10595
03/04/2020,20:37,63.86,63.86,63.77,63.85, 7783
03/04/2020,20:38,63.86,63.91,63.84,63.85, 4558
03/04/2020,20:39,63.85,63.86,63.8,63.84, 13631
03/04/2020,20:40,63.84,63.85,63.68,63.68, 6626
03/04/2020,20:41,63.69,63.71,63.64,63.65, 3523
03/04/2020,20:42,63.62,63.68,63.62,63.68, 7293
03/04/2020,20:43,63.69,63.74,63.69,63.72, 5034
03/04/2020,20:44,63.73,63.79,63.73,63.73, 4180
03/04/2020,20:45,63.72,63.77,63.66,63.73, 8447
03/04/2020,20:46,63.7,63.76,63.65,63.76, 19239
03/04/2020,20:47,63.76,63.76,63.68,63.7, 5111
03/04/2020,20:48,63.69,63.69,63.61,63.64, 5213
03/04/2020,20:49,63.62,63.62,63.57,63.6, 3660
03/04/2020,20:50,63.59,63.61,63.5,63.5, 4645
03/04/2020,20:51,63.52,63.53,63.45,63.53, 9922
03/04/2020,20:52,63.52,63.54,63.32,63.35, 14845
03/04/2020,20:53,63.32,63.4,63.32,63.4, 16042
03/04/2020,20:54,63.4,63.48,63.38,63.45, 8223
03/04/2020,20:55,63.46,63.46,63.4,63.43, 2432
03/04/2020,20:56,63.43,63.44,63.32,63.32, 5717
03/04/2020,20:57,63.34,63.4,63.34,63.39, 6287
03/04/2020,20:58,63.39,63.54,63.38,63.51, 10544
03/04/2020,20:59,63.51,63.58,63.49,63.58, 3625
03/04/2020,21:00,63.55,63.56,63.5,63.52, 6857
03/04/2020,21:01,63.54,63.54,63.48,63.5, 3219
03/04/2020,21:02,63.48,63.51,63.43,63.49, 8951
03/04/2020,21:03,63.51,63.53,63.44,63.45, 2426
03/04/2020,21:04,63.44,63.47,63.43,63.45, 7009
03/04/2020,21:05,63.45,63.53,63.44,63.5, 8514
03/04/2020,21:06,63.48,63.49,63.33,63.33, 10217
03/04/2020,21:07,63.35,63.41,63.33,63.4, 11985
03/04/2020,21:08,63.4,63.4,63.23,63.23, 13535
03/04/2020,21:09,63.24,63.31,63.22,63.28, 7310
03/04/2020,21:10,63.27,63.3,63.26,63.29, 7969
03/04/2020,21:11,63.3,63.37,63.3,63.36, 2959
03/04/2020,21:12,63.36,63.41,63.35,63.4, 6686
03/04/2020,21:13,63.41,63.56,63.4,63.51, 16193
03/04/2020,21:14,63.52,63.52,63.47,63.5, 4791
03/04/2020,21:15,63.5,63.5,63.41,63.41, 4437
03/04/2020,21:16,63.41,63.42,63.33,63.38, 15545
03/04/2020,21:17,63.35,63.36,63.33,63.35, 4179
03/04/2020,21:18,63.33,63.39,63.29,63.29, 9306
03/04/2020,21:19,63.3,63.38,63.3,63.35, 7633
03/04/2020,21:20,63.36,63.37,63.3,63.36, 6973
03/04/2020,21:21,63.36,63.38,63.34,63.37, 16737
03/04/2020,21:22,63.36,63.39,63.33,63.35, 6161
03/04/2020,21:23,63.37,63.39,63.34,63.39, 9643
03/04/2020,21:24,63.4,63.52,63.38,63.51, 18161
03/04/2020,21:25,63.5,63.54,63.49,63.49, 18428
03/04/2020,21:26,63.49,63.53,63.46,63.53, 9659
03/04/2020,21:27,63.57,63.59,63.54,63.59, 9224
03/04/2020,21:28,63.58,63.62,63.54,63.61, 6847
03/04/2020,21:29,63.62,63.64,63.57,63.61, 4439
03/04/2020,21:30,63.63,63.63,63.57,63.57, 5039
03/04/2020,21:31,63.6,63.69,63.59,63.66, 12575
03/04/2020,21:32,63.69,63.8,63.69,63.8, 9520
03/04/2020,21:33,63.78,63.81,63.73,63.76, 11172
03/04/2020,21:34,63.77,63.82,63.73,63.76, 9865
03/04/2020,21:35,63.77,63.77,63.7,63.73, 7039
03/04/2020,21:36,63.73,63.77,63.69,63.71, 10156
03/04/2020,21:37,63.7,63.7,63.62,63.7, 8058
03/04/2020,21:38,63.7,63.71,63.64,63.68, 9840
03/04/2020,21:39,63.66,63.69,63.58,63.65, 12243
03/04/2020,21:40,63.65,63.65,63.55,63.64, 11166
03/04/2020,21:41,63.65,63.75,63.65,63.7, 26238
03/04/2020,21:42,63.7,63.71,63.62,63.7, 14507
03/04/2020,21:43,63.7,63.7,63.58,63.6, 8732
03/04/2020,21:44,63.6,63.66,63.57,63.59, 9931
03/04/2020,21:45,63.61,63.68,63.59,63.64, 10750
03/04/2020,21:46,63.64,63.64,63.5,63.57, 17047
03/04/2020,21:47,63.58,63.62,63.53,63.6, 15756
03/04/2020,21:48,63.59,63.6,63.42,63.46, 15886
03/04/2020,21:49,63.47,63.61,63.47,63.61, 11585
03/04/2020,21:50,63.61,63.63,63.55,63.55, 14432
03/04/2020,21:51,63.57,63.69,63.55,63.67, 13130
03/04/2020,21:51,63.68,63.86,63.65,63.82, 27492
03/04/2020,21:52,63.83,63.92,63.81,63.92, 21854
03/04/2020,21:53,63.91,63.95,63.83,63.9, 35517
03/04/2020,21:54,63.91,63.94,63.85,63.93, 17871
03/04/2020,21:55,63.9,64,63.9,64, 25039
03/04/2020,21:56,63.99,64.05,63.94,63.96, 29397
03/04/2020,21:57,63.95,64.1,63.95,64.1, 33265
03/04/2020,21:58,64.12,64.17,64.07,64.17, 52389
03/04/2020,21:59,64.17,64.2,64.15,64.2, 64571
03/04/2020,22:00,64.2,64.21,63.99,63.99, 72147
03/04/2020,22:00,63.99,64.12,63.99,64.1, 48250
03/04/2020,22:03,64.11,64.12,64.06,64.08, 592921
03/05/2020,15:31,61.78,62.02,61.63,61.99, 76879
03/05/2020,15:32,61.87,61.98,61.79,61.97, 4688
03/05/2020,15:33,61.92,62.07,61.82,62.07, 3557
03/05/2020,15:33,62.18,62.18,61.94,62.06, 12200
03/05/2020,15:34,62.07,62.5,62.07,62.5, 4650
03/05/2020,15:34,62.49,62.61,62.46,62.49, 1709
03/05/2020,15:35,62.51,62.74,62.51,62.64, 4764
03/05/2020,15:36,62.73,63,62.72,62.92, 12040
03/05/2020,15:37,62.93,63.2,62.93,63.2, 6426
03/05/2020,15:38,63.09,63.28,63.09,63.21, 3000
03/05/2020,15:39,63.35,63.4,63.24,63.34, 5900
03/05/2020,15:39,63.24,63.31,63.11,63.14, 4713
03/05/2020,15:40,63.02,63.03,62.8,62.93, 6480
03/05/2020,15:41,62.85,63.04,62.85,62.92, 6919
03/05/2020,15:42,62.95,62.96,62.61,62.61, 3969
03/05/2020,15:43,62.59,62.84,62.59,62.84, 6820
03/05/2020,15:43,62.77,62.81,62.55,62.55, 5196
03/05/2020,15:44,62.55,62.72,62.45,62.57, 5541
03/05/2020,15:46,62.48,62.65,62.41,62.46, 4679
03/05/2020,15:47,62.41,62.49,62.36,62.49, 4912
03/05/2020,15:48,62.51,62.61,62.43,62.61, 4470
03/05/2020,15:49,62.66,62.66,62.32,62.34, 14421
03/05/2020,15:51,62.32,62.47,62.32,62.46, 7005
03/05/2020,15:52,62.41,62.48,62.29,62.48, 10575
03/05/2020,15:52,62.45,62.46,62.33,62.33, 4748
03/05/2020,15:54,62.31,62.41,62.31,62.37, 4271
03/05/2020,15:55,62.35,62.46,62.35,62.43, 3307
03/05/2020,15:56,62.45,62.55,62.31,62.35, 14458
03/05/2020,15:57,62.31,62.32,62.13,62.26, 14511
03/05/2020,15:58,62.24,62.28,62.12,62.12, 12127
03/05/2020,15:59,62.15,62.18,62.01,62.1, 8390
03/05/2020,16:01,62.1,62.27,62.1,62.27, 8447
03/05/2020,16:02,62.22,62.56,62.18,62.51, 11946
03/05/2020,16:03,62.52,62.6,62.41,62.46, 3700
03/05/2020,16:04,62.49,62.55,62.44,62.44, 17672
03/05/2020,16:06,62.48,62.48,62.23,62.27, 6185
03/05/2020,16:07,62.28,62.28,62.12,62.2, 4562
03/05/2020,16:08,62.18,62.27,62.12,62.19, 7151
03/05/2020,16:09,62.16,62.42,62.16,62.42, 58691
03/05/2020,16:10,62.38,62.52,62.38,62.51, 3184
03/05/2020,16:12,62.51,62.62,62.5,62.54, 3235
03/05/2020,16:12,62.57,62.65,62.52,62.64, 4300
03/05/2020,16:14,62.67,62.75,62.66,62.7, 6913
03/05/2020,16:15,62.72,62.76,62.7,62.76, 7496
03/05/2020,16:16,62.74,62.86,62.74,62.86, 6139
03/05/2020,16:17,62.84,62.9,62.82,62.85, 3865
03/05/2020,16:17,62.87,62.91,62.84,62.88, 25300
03/05/2020,16:18,62.85,62.89,62.76,62.83, 18450
03/05/2020,16:19,62.87,63.03,62.87,63.03, 1282
03/05/2020,16:20,63.1,63.2,63.01,63.09, 3026
03/05/2020,16:21,63.23,63.35,63.15,63.27, 3725
03/05/2020,16:23,63.23,63.35,63.2,63.23, 2100
03/05/2020,16:23,63.24,63.65,63.22,63.63, 5112
03/05/2020,16:25,63.63,63.73,63.57,63.73, 4363
03/05/2020,16:25,63.65,63.74,63.47,63.47, 4410
03/05/2020,16:26,63.57,63.57,63.33,63.39, 2800
03/05/2020,16:27,63.32,63.42,63.26,63.26, 4218
03/05/2020,16:28,63.25,63.31,63.18,63.2, 3156
03/05/2020,16:29,63.24,63.24,62.99,63.09, 15887
03/05/2020,16:30,63,63.03,62.9,62.95, 2100
03/05/2020,16:31,62.9,63.04,62.89,62.98, 5309
03/05/2020,16:32,62.95,63.05,62.94,63.05, 8962
03/05/2020,16:33,63.01,63.02,62.92,63, 6384
03/05/2020,16:35,62.99,63.04,62.87,62.94, 7357
03/05/2020,16:35,62.97,62.97,62.82,62.9, 3408
03/05/2020,16:36,62.91,62.92,62.69,62.76, 4761
03/05/2020,16:37,62.67,62.67,62.51,62.53, 3707
03/05/2020,16:39,62.54,62.6,62.42,62.48, 11755
03/05/2020,16:39,62.51,62.51,62.45,62.5, 1195
03/05/2020,16:41,62.48,62.55,62.43,62.55, 6733
03/05/2020,16:42,62.54,62.63,62.54,62.63, 4100
03/05/2020,16:43,62.64,62.66,62.57,62.63, 6101
03/05/2020,16:44,62.64,62.67,62.6,62.63, 5623
03/05/2020,16:45,62.58,62.58,62.4,62.42, 9626
03/05/2020,16:46,62.4,62.47,62.34,62.34, 5520
03/05/2020,16:47,62.31,62.34,62.25,62.25, 12639
03/05/2020,16:48,62.26,62.39,62.23,62.34, 9782
03/05/2020,16:49,62.37,62.53,62.37,62.5, 5116
03/05/2020,16:50,62.51,62.59,62.48,62.58, 10000
03/05/2020,16:50,62.58,62.58,62.45,62.47, 13984
03/05/2020,16:52,62.49,62.49,62.25,62.27, 10843
03/05/2020,16:53,62.3,62.37,62.26,62.31, 8994
03/05/2020,16:54,62.31,62.42,62.29,62.42, 11209
03/05/2020,16:55,62.43,62.5,62.38,62.38, 9260
03/05/2020,16:56,62.37,62.53,62.34,62.42, 12966
03/05/2020,16:56,62.43,62.43,62.31,62.39, 12374
03/05/2020,16:58,62.39,62.39,62.25,62.31, 10374
03/05/2020,16:59,62.26,62.32,62.2,62.31, 4477
03/05/2020,17:00,62.36,62.36,62.2,62.23, 5900
03/05/2020,17:01,62.24,62.25,62.08,62.1, 10870
03/05/2020,17:02,62.13,62.3,62.13,62.29, 7576
03/05/2020,17:02,62.31,62.34,62.23,62.31, 5284
03/05/2020,17:04,62.31,62.31,62.25,62.26, 3331
03/05/2020,17:05,62.25,62.25,62.09,62.2, 4508
03/05/2020,17:06,62.15,62.27,62.15,62.27, 1201
03/05/2020,17:07,62.25,62.41,62.24,62.38, 2948
03/05/2020,17:07,62.41,62.51,62.41,62.51, 2000
03/05/2020,17:09,62.55,62.65,62.55,62.6, 3832
03/05/2020,17:10,62.57,62.7,62.57,62.7, 1600
03/05/2020,17:11,62.72,62.86,62.72,62.79, 5175
03/05/2020,17:12,62.77,62.8,62.74,62.75, 16345
03/05/2020,17:13,62.77,62.89,62.77,62.88, 4300
03/05/2020,17:14,62.84,62.86,62.75,62.86, 6667
03/05/2020,17:15,62.85,62.87,62.81,62.82, 3115
03/05/2020,17:16,62.82,62.89,62.73,62.74, 5272
03/05/2020,17:17,62.72,62.74,62.64,62.65, 4071
03/05/2020,17:18,62.63,62.66,62.59,62.61, 3242
03/05/2020,17:19,62.61,62.68,62.61,62.65, 5325
03/05/2020,17:20,62.64,62.71,62.64,62.71, 3600
03/05/2020,17:21,62.71,62.74,62.65,62.71, 5257
03/05/2020,17:22,62.7,62.7,62.46,62.47, 4489
03/05/2020,17:23,62.45,62.45,62.32,62.41, 8200
03/05/2020,17:24,62.41,62.43,62.36,62.4, 2100
03/05/2020,17:25,62.4,62.4,62.34,62.36, 7663
03/05/2020,17:26,62.39,62.4,62.3,62.31, 4370
03/05/2020,17:27,62.29,62.37,62.28,62.35, 4616
03/05/2020,17:28,62.35,62.4,62.3,62.34, 3098
03/05/2020,17:29,62.37,62.55,62.37,62.52, 13977
03/05/2020,17:30,62.54,62.54,62.34,62.36, 5714
03/05/2020,17:31,62.34,62.42,62.34,62.39, 1989
03/05/2020,17:32,62.38,62.42,62.34,62.41, 2905
03/05/2020,17:33,62.43,62.48,62.31,62.32, 4592
03/05/2020,17:34,62.32,62.32,62.23,62.27, 6594
03/05/2020,17:35,62.28,62.38,62.26,62.32, 4302
03/05/2020,17:36,62.34,62.5,62.33,62.35, 15675
03/05/2020,17:37,62.37,62.41,62.35,62.36, 7694
03/05/2020,17:38,62.36,62.37,62.28,62.29, 1000
03/05/2020,17:39,62.31,62.31,62.19,62.2, 3035
03/05/2020,17:40,62.2,62.22,62.1,62.1, 5534
03/05/2020,17:41,62.13,62.24,62.13,62.24, 7459
03/05/2020,17:42,62.26,62.27,62.2,62.21, 9256
03/05/2020,17:43,62.21,62.21,62.15,62.21, 3451
03/05/2020,17:44,62.23,62.23,62.14,62.17, 4766
03/05/2020,17:45,62.21,62.22,62.13,62.13, 3702
03/05/2020,17:46,62.11,62.15,62,62, 6158
03/05/2020,17:47,62.01,62.08,62,62.08, 9048
03/05/2020,17:48,62.09,62.2,62.09,62.2, 2000
03/05/2020,17:49,62.17,62.23,62.16,62.16, 2641
03/05/2020,17:50,62.21,62.27,62.21,62.27, 2201
03/05/2020,17:50,62.26,62.26,62.12,62.17, 1847
03/05/2020,17:52,62.2,62.21,62.05,62.08, 4612
03/05/2020,17:53,62.1,62.11,62.06,62.1, 2869
03/05/2020,17:54,62.12,62.15,62.09,62.15, 4567
03/05/2020,17:55,62.16,62.16,62.05,62.12, 2201
03/05/2020,17:56,62.11,62.16,62.1,62.11, 2955
03/05/2020,17:57,62.13,62.13,61.93,61.98, 5001
03/05/2020,17:58,61.99,62.04,61.96,61.96, 1898
03/05/2020,17:59,61.94,61.96,61.86,61.94, 5396
03/05/2020,18:00,61.96,61.99,61.93,61.96, 4910
03/05/2020,18:01,61.96,62.03,61.95,62.03, 4138
03/05/2020,18:02,62.05,62.1,61.98,62.08, 2822
03/05/2020,18:03,62.08,62.17,62.08,62.11, 2695
03/05/2020,18:04,62.09,62.12,62.04,62.04, 4739
03/05/2020,18:05,62.06,62.08,62.04,62.08, 2300
03/05/2020,18:06,62.06,62.07,61.97,62.01, 4879
03/05/2020,18:07,61.96,62.02,61.95,61.96, 3100
03/05/2020,18:08,61.94,62.02,61.94,61.97, 7577
03/05/2020,18:09,61.96,61.96,61.92,61.92, 3021
03/05/2020,18:10,61.89,62,61.89,61.97, 8058
03/05/2020,18:11,61.97,61.99,61.94,61.96, 1933
03/05/2020,18:12,61.96,62.04,61.95,62.04, 2267
03/05/2020,18:13,62.03,62.09,62.03,62.06, 6977
03/05/2020,18:14,62.06,62.06,61.97,62.01, 1800
03/05/2020,18:15,61.97,61.99,61.93,61.93, 1900
03/05/2020,18:16,61.93,61.96,61.87,61.88, 2500
03/05/2020,18:17,61.88,61.91,61.84,61.88, 8166
03/05/2020,18:18,61.88,61.88,61.8,61.83, 3420
03/05/2020,18:19,61.82,61.87,61.78,61.78, 3637
03/05/2020,18:19,61.78,61.81,61.77,61.8, 2569
03/05/2020,18:21,61.81,61.83,61.74,61.74, 9066
03/05/2020,18:22,61.75,61.79,61.71,61.72, 4519
03/05/2020,18:23,61.7,61.77,61.7,61.7, 1157
03/05/2020,18:24,61.7,61.75,61.66,61.7, 4018
03/05/2020,18:25,61.67,61.67,61.53,61.55, 7215
03/05/2020,18:26,61.54,61.54,61.46,61.5, 8344
03/05/2020,18:27,61.51,61.51,61.39,61.45, 4900
03/05/2020,18:28,61.45,61.47,61.41,61.43, 13045
03/05/2020,18:29,61.44,61.51,61.44,61.48, 4500
03/05/2020,18:30,61.47,61.49,61.45,61.45, 6013
03/05/2020,18:31,61.45,61.48,61.39,61.44, 2724
03/05/2020,18:32,61.41,61.5,61.41,61.5, 3500
03/05/2020,18:33,61.5,61.6,61.5,61.6, 5731
03/05/2020,18:34,61.61,61.78,61.6,61.77, 19967
03/05/2020,18:35,61.77,61.79,61.65,61.65, 3036
03/05/2020,18:36,61.63,61.63,61.55,61.56, 3560
03/05/2020,18:37,61.55,61.55,61.41,61.43, 1000
03/05/2020,18:38,61.41,61.41,61.3,61.4, 4759
03/05/2020,18:39,61.4,61.4,61.34,61.36, 2294
03/05/2020,18:40,61.35,61.39,61.32,61.37, 3008
03/05/2020,18:41,61.37,61.37,61.26,61.29, 2889
03/05/2020,18:42,61.28,61.31,61.24,61.28, 6969
03/05/2020,18:43,61.27,61.34,61.2,61.22, 10713
03/05/2020,18:44,61.2,61.22,61.12,61.21, 5058
03/05/2020,18:45,61.19,61.23,61.17,61.2, 1720
03/05/2020,18:46,61.17,61.18,61.03,61.04, 6339
03/05/2020,18:47,61.09,61.11,61.03,61.11, 10250
03/05/2020,18:48,61.1,61.16,61.1,61.11, 4756
03/05/2020,18:49,61.08,61.09,61.04,61.06, 3255
03/05/2020,18:50,61.06,61.25,61.06,61.24, 3301
03/05/2020,18:51,61.25,61.39,61.25,61.36, 6872
03/05/2020,18:51,61.34,61.41,61.34,61.37, 2536
03/05/2020,18:53,61.33,61.33,61.22,61.22, 2064
03/05/2020,18:54,61.24,61.29,61.23,61.28, 6048
03/05/2020,18:55,61.26,61.32,61.26,61.27, 5592
03/05/2020,18:56,61.25,61.35,61.25,61.28, 4295
03/05/2020,18:57,61.3,61.31,61.24,61.25, 1732
03/05/2020,18:57,61.23,61.28,61.17,61.17, 2672
03/05/2020,18:59,61.17,61.17,61.09,61.11, 8434
03/05/2020,19:00,61.11,61.16,61.05,61.05, 14356
03/05/2020,19:01,61.04,61.06,60.91,60.93, 5679
03/05/2020,19:02,60.92,61.09,60.92,61.01, 5019
03/05/2020,19:03,61.05,61.17,61.05,61.17, 2669
03/05/2020,19:04,61.16,61.21,61.1,61.1, 3200
03/05/2020,19:05,61.08,61.14,61.03,61.11, 5316
03/05/2020,19:06,61.1,61.1,61.04,61.09, 3644
03/05/2020,19:07,61.12,61.14,60.96,60.96, 4185
03/05/2020,19:08,60.96,61.03,60.95,61.02, 7804
03/05/2020,19:09,61.04,61.1,60.94,60.97, 6806
03/05/2020,19:10,60.93,60.98,60.89,60.98, 11300
03/05/2020,19:11,60.97,61.01,60.89,60.89, 7043
03/05/2020,19:12,60.9,60.91,60.8,60.91, 3028
03/05/2020,19:13,60.91,61.02,60.91,60.98, 4554
03/05/2020,19:14,60.97,60.99,60.89,60.98, 6026
03/05/2020,19:15,60.96,60.97,60.85,60.86, 5408
03/05/2020,19:16,60.85,60.92,60.83,60.92, 4041
03/05/2020,19:17,60.9,60.95,60.85,60.91, 8118
03/05/2020,19:18,60.93,61,60.9,60.9, 14421
03/05/2020,19:19,60.9,60.95,60.78,60.78, 5145
03/05/2020,19:20,60.8,60.95,60.79,60.81, 11439
03/05/2020,19:21,60.81,60.85,60.71,60.8, 8095
03/05/2020,19:22,60.77,60.86,60.74,60.83, 4834
03/05/2020,19:23,60.83,61.04,60.83,61, 4194
03/05/2020,19:24,61.04,61.06,60.97,61, 7455
03/05/2020,19:25,60.97,61.11,60.97,61.04, 4010
03/05/2020,19:26,61.09,61.14,61.05,61.11, 2943
03/05/2020,19:27,61.12,61.12,61.05,61.07, 3532
03/05/2020,19:28,61.08,61.11,61.07,61.07, 2700
03/05/2020,19:29,61.06,61.19,61.06,61.08, 4707
03/05/2020,19:30,61.03,61.08,61,61.08, 2513
03/05/2020,19:31,61.07,61.07,60.99,61.01, 2567
03/05/2020,19:32,61.06,61.09,61.02,61.03, 3827
03/05/2020,19:33,61.01,61.03,60.97,60.99, 6568
03/05/2020,19:34,60.99,61.07,60.95,60.99, 6289
03/05/2020,19:35,60.98,61.11,60.97,61.09, 4290
03/05/2020,19:36,61.06,61.21,61.06,61.2, 5660
03/05/2020,19:37,61.18,61.26,61.16,61.25, 4156
03/05/2020,19:38,61.23,61.29,61.17,61.2, 3746
03/05/2020,19:39,61.17,61.17,61.05,61.06, 6187
03/05/2020,19:40,61.09,61.09,60.98,60.98, 5502
03/05/2020,19:41,60.97,61.03,60.89,61.03, 11943
03/05/2020,19:42,61.02,61.07,60.94,60.96, 5826
03/05/2020,19:43,60.99,61.03,60.94,60.97, 4891
03/05/2020,19:44,60.96,61.01,60.93,60.93, 4311
03/05/2020,19:45,60.95,60.95,60.86,60.95, 3850
03/05/2020,19:46,60.95,60.95,60.84,60.89, 2900
03/05/2020,19:46,60.91,60.99,60.91,60.96, 5800
03/05/2020,19:48,61,61.11,61,61.04, 2763
03/05/2020,19:49,61.11,61.17,61.08,61.14, 1818
03/05/2020,19:50,61.17,61.27,61.17,61.27, 1854
03/05/2020,19:51,61.23,61.28,61.23,61.25, 3138
03/05/2020,19:52,61.27,61.29,61.15,61.15, 3559
03/05/2020,19:53,61.19,61.23,61.16,61.18, 2830
03/05/2020,19:54,61.19,61.2,61.15,61.15, 2000
03/05/2020,19:55,61.15,61.42,61.15,61.38, 8142
03/05/2020,19:56,61.39,61.51,61.37,61.5, 5520
03/05/2020,19:57,61.5,61.53,61.42,61.49, 2983
03/05/2020,19:58,61.5,61.5,61.41,61.49, 3900
03/05/2020,19:58,61.46,61.48,61.42,61.48, 2507
03/05/2020,20:00,61.48,61.58,61.48,61.55, 6682
03/05/2020,20:01,61.56,61.58,61.5,61.5, 2100
03/05/2020,20:02,61.47,61.66,61.47,61.65, 4500
03/05/2020,20:03,61.62,61.68,61.56,61.62, 6304
03/05/2020,20:04,61.6,61.6,61.42,61.43, 5519
03/05/2020,20:05,61.41,61.54,61.39,61.49, 2961
03/05/2020,20:06,61.45,61.52,61.45,61.48, 2237
03/05/2020,20:07,61.44,61.52,61.43,61.51, 4861
03/05/2020,20:08,61.47,61.52,61.46,61.5, 7367
03/05/2020,20:09,61.5,61.6,61.5,61.6, 4089
03/05/2020,20:10,61.58,61.69,61.58,61.66, 8245
03/05/2020,20:11,61.64,61.65,61.55,61.56, 1789
03/05/2020,20:12,61.55,61.56,61.51,61.55, 3762
03/05/2020,20:13,61.51,61.54,61.47,61.48, 1304
03/05/2020,20:14,61.47,61.68,61.46,61.66, 2620
03/05/2020,20:15,61.64,61.7,61.6,61.68, 4050
03/05/2020,20:16,61.64,61.64,61.58,61.58, 900
03/05/2020,20:17,61.55,61.55,61.48,61.51, 2700
03/05/2020,20:17,61.51,61.51,61.43,61.43, 2372
03/05/2020,20:18,61.4,61.4,61.37,61.37, 3243
03/05/2020,20:20,61.36,61.36,61.29,61.29, 4867
03/05/2020,20:21,61.29,61.33,61.24,61.32, 6764
03/05/2020,20:22,61.34,61.34,61.19,61.22, 8707
03/05/2020,20:23,61.21,61.34,61.2,61.29, 5121
03/05/2020,20:24,61.35,61.39,61.32,61.36, 3209
03/05/2020,20:25,61.37,61.38,61.24,61.24, 3881
03/05/2020,20:26,61.27,61.27,61.14,61.14, 3518
03/05/2020,20:27,61.11,61.14,61.03,61.06, 2779
03/05/2020,20:28,61.04,61.09,60.99,61.06, 7901
03/05/2020,20:29,61.06,61.13,60.98,61.01, 3442
03/05/2020,20:30,60.98,61.1,60.98,61.1, 3893
03/05/2020,20:30,61.09,61.1,61.01,61.01, 2300
03/05/2020,20:32,61.01,61.11,61.01,61.08, 7581
03/05/2020,20:33,61.09,61.15,61.09,61.14, 1900
03/05/2020,20:34,61.1,61.2,61.09,61.12, 3656
03/05/2020,20:35,61.12,61.21,61.12,61.15, 9994
03/05/2020,20:36,61.14,61.14,61.02,61.02, 4466
03/05/2020,20:37,61.02,61.11,61.01,61.11, 4205
03/05/2020,20:38,61.12,61.2,61.1,61.2, 3345
03/05/2020,20:39,61.22,61.34,61.22,61.34, 3632
03/05/2020,20:40,61.34,61.41,61.31,61.4, 2913
03/05/2020,20:41,61.45,61.49,61.42,61.48, 3670
03/05/2020,20:42,61.5,61.55,61.42,61.45, 4497
03/05/2020,20:43,61.47,61.49,61.4,61.4, 3415
03/05/2020,20:44,61.39,61.47,61.37,61.47, 3691
03/05/2020,20:45,61.45,61.45,61.36,61.37, 3338
03/05/2020,20:46,61.37,61.38,61.3,61.3, 9795
03/05/2020,20:47,61.29,61.29,61.25,61.27, 5816
03/05/2020,20:48,61.26,61.31,61.26,61.27, 6781
03/05/2020,20:49,61.25,61.27,61.21,61.21, 3584
03/05/2020,20:50,61.21,61.26,61.18,61.26, 8283
03/05/2020,20:51,61.26,61.33,61.25,61.3, 7009
03/05/2020,20:52,61.33,61.37,61.27,61.33, 7460
03/05/2020,20:53,61.3,61.39,61.3,61.38, 19451
03/05/2020,20:54,61.39,61.46,61.38,61.38, 14154
03/05/2020,20:55,61.36,61.36,61.21,61.21, 2631
03/05/2020,20:56,61.22,61.28,61.08,61.17, 8082
03/05/2020,20:57,61.15,61.21,61.15,61.21, 1426
03/05/2020,20:58,61.22,61.23,61.11,61.11, 2483
03/05/2020,20:59,61.11,61.23,61.09,61.18, 5800
03/05/2020,21:00,61.2,61.3,61.18,61.27, 2731
03/05/2020,21:01,61.24,61.25,61.17,61.22, 3538
03/05/2020,21:02,61.23,61.23,61.12,61.15, 3096
03/05/2020,21:03,61.14,61.23,61.13,61.14, 2200
03/05/2020,21:04,61.14,61.15,61.11,61.12, 1331
03/05/2020,21:05,61.14,61.15,61.1,61.13, 2200
03/05/2020,21:06,61.13,61.15,61.03,61.15, 3266
03/05/2020,21:07,61.14,61.18,61.12,61.18, 4486
03/05/2020,21:08,61.17,61.22,61.14,61.22, 2552
03/05/2020,21:09,61.2,61.22,61.19,61.2, 2062
03/05/2020,21:10,61.21,61.27,61.2,61.25, 6507
03/05/2020,21:11,61.24,61.25,61.2,61.25, 3500
03/05/2020,21:12,61.26,61.26,61,61, 7587
03/05/2020,21:13,61,61.03,60.95,60.95, 5576
03/05/2020,21:14,60.95,60.96,60.89,60.91, 3842
03/05/2020,21:15,60.93,60.95,60.86,60.94, 4665
03/05/2020,21:16,60.93,61.04,60.91,61.04, 3846
03/05/2020,21:17,61.03,61.09,61,61.05, 6200
03/05/2020,21:18,61.03,61.03,60.91,60.97, 9057
03/05/2020,21:19,60.96,61.02,60.95,61, 14264
03/05/2020,21:20,61,61.01,60.95,60.97, 5253
03/05/2020,21:21,60.97,61,60.93,61, 10886
03/05/2020,21:22,61.01,61.14,61.01,61.05, 7334
03/05/2020,21:23,61.06,61.07,61.03,61.05, 4807
03/05/2020,21:24,61.06,61.12,61.05,61.12, 11871
03/05/2020,21:25,61.12,61.13,61.04,61.05, 5296
03/05/2020,21:26,61.03,61.12,61,61.07, 7306
03/05/2020,21:27,61.09,61.15,61.05,61.05, 7841
03/05/2020,21:28,61.05,61.14,61.02,61.1, 8066
03/05/2020,21:29,61.13,61.3,61.12,61.3, 15301
03/05/2020,21:30,61.34,61.38,61.3,61.36, 10174
03/05/2020,21:31,61.38,61.4,61.2,61.2, 6272
03/05/2020,21:32,61.18,61.3,61.17,61.3, 5910
03/05/2020,21:33,61.31,61.41,61.29,61.41, 14225
03/05/2020,21:34,61.4,61.44,61.36,61.36, 11831
03/05/2020,21:35,61.36,61.43,61.29,61.33, 23361
03/05/2020,21:36,61.34,61.5,61.33,61.46, 15680
03/05/2020,21:37,61.47,61.57,61.41,61.54, 15519
03/05/2020,21:38,61.56,61.59,61.51,61.58, 10052
03/05/2020,21:39,61.58,61.58,61.45,61.45, 10120
03/05/2020,21:40,61.45,61.56,61.42,61.51, 16151
03/05/2020,21:41,61.49,61.59,61.49,61.54, 11052
03/05/2020,21:42,61.54,61.56,61.4,61.4, 11883
03/05/2020,21:43,61.42,61.42,61.33,61.35, 11243
03/05/2020,21:44,61.34,61.38,61.14,61.16, 8509
03/05/2020,21:45,61.16,61.28,61.09,61.28, 14118
03/05/2020,21:46,61.26,61.42,61.22,61.37, 9281
03/05/2020,21:47,61.34,61.34,61.18,61.19, 7510
03/05/2020,21:48,61.18,61.26,61.15,61.25, 8242
03/05/2020,21:49,61.23,61.26,61.17,61.25, 9564
03/05/2020,21:50,61.25,61.43,61.25,61.36, 11417
03/05/2020,21:50,61.33,61.48,61.32,61.35, 11026
03/05/2020,21:51,61.35,61.62,61.34,61.62, 6788
03/05/2020,21:53,61.66,61.72,61.5,61.54, 15508
03/05/2020,21:53,61.54,61.54,61.37,61.5, 11441
03/05/2020,21:55,61.49,61.54,61.4,61.48, 14696
03/05/2020,21:55,61.5,61.61,61.47,61.48, 13533
03/05/2020,21:57,61.46,61.7,61.45,61.59, 25201
03/05/2020,21:58,61.59,61.59,61.44,61.46, 22227
03/05/2020,21:58,61.46,61.72,61.44,61.64, 24418
03/05/2020,21:59,61.62,61.69,61.56,61.67, 36277
03/05/2020,22:00,61.69,61.91,61.67,61.88, 54821
03/05/2020,22:01,61.88,61.97,61.87,61.87, 632744
03/06/2020,15:31,58.92,58.92,58.92,58.92, 300
03/06/2020,15:32,58.49,58.58,58.49,58.5, 600
03/06/2020,15:33,58.53,58.6,58.27,58.28, 5636
03/06/2020,15:34,58.27,58.74,58.19,58.67, 14554
03/06/2020,15:35,58.73,58.82,58.68,58.73, 8106
03/06/2020,15:36,58.71,59.02,58.71,59.02, 15264
03/06/2020,15:37,59.01,59.16,58.95,59.16, 1770
03/06/2020,15:38,59.21,59.67,59.21,59.53, 1886
03/06/2020,15:39,59.62,59.72,59.37,59.37, 9756
03/06/2020,15:40,59.46,59.78,59.46,59.78, 1100
03/06/2020,15:41,59.84,59.84,59.58,59.63, 3400
03/06/2020,15:41,59.43,59.51,59.21,59.21, 4392
03/06/2020,15:43,59.15,59.3,59.12,59.12, 10178
03/06/2020,15:43,59.01,59.36,59.01,59.34, 8950
03/06/2020,15:44,59.25,59.39,59.25,59.37, 8450
03/06/2020,15:45,59.41,59.74,59.41,59.66, 644
03/06/2020,15:46,59.74,59.9,59.71,59.71, 9303
03/06/2020,15:47,59.74,59.76,59.33,59.34, 12450
03/06/2020,15:48,59.33,59.48,59.32,59.39, 26310
03/06/2020,15:49,59.37,59.41,59.25,59.27, 18960
03/06/2020,15:49,59.27,59.41,59.16,59.22, 19790
03/06/2020,15:50,59.24,59.4,58.96,59.04, 30293
03/06/2020,15:51,59.09,59.09,58.44,58.53, 32400
03/06/2020,15:52,58.49,58.75,58.49,58.61, 1994
03/06/2020,15:53,58.61,58.66,58.06,58.07, 11090
03/06/2020,15:54,58.09,58.27,58.01,58.04, 7439
03/06/2020,15:55,58.12,58.42,58.04,58.38, 11042
03/06/2020,15:56,58.38,58.38,58.02,58.14, 13232
03/06/2020,15:57,58.15,58.37,58.08,58.31, 24198
03/06/2020,15:58,58.22,58.3,58.02,58.05, 14258
03/06/2020,15:59,58.06,58.2,58.04,58.15, 6698
03/06/2020,16:00,58.12,58.42,58.04,58.42, 4075
03/06/2020,16:01,58.31,58.33,58.21,58.31, 5500
03/06/2020,16:01,58.31,58.43,58.25,58.43, 2010
03/06/2020,16:02,58.4,58.53,58.39,58.51, 9678
03/06/2020,16:03,58.5,58.5,58.24,58.33, 6034
03/06/2020,16:04,58.35,58.38,58.1,58.1, 3538
03/06/2020,16:05,58.07,58.15,58.02,58.15, 5465
03/06/2020,16:06,58.21,58.39,58.14,58.14, 2920
03/06/2020,16:07,58.15,58.33,57.93,58, 6695
03/06/2020,16:08,57.99,58.05,57.89,57.92, 4360
03/06/2020,16:09,57.93,57.93,57.72,57.91, 7316
03/06/2020,16:10,57.97,58.02,57.52,57.55, 6869
03/06/2020,16:11,57.53,57.61,57.41,57.58, 16253
03/06/2020,16:12,57.59,57.83,57.53,57.77, 16461
03/06/2020,16:13,57.74,57.77,57.49,57.54, 5769
03/06/2020,16:14,57.57,57.97,57.57,57.95, 11038
03/06/2020,16:15,57.94,57.98,57.86,57.93, 53476
03/06/2020,16:16,57.85,57.93,57.66,57.66, 4200
03/06/2020,16:18,57.66,57.85,57.66,57.8, 9980
03/06/2020,16:18,57.82,57.84,57.62,57.69, 10451
03/06/2020,16:20,57.64,57.93,57.59,57.82, 8136
03/06/2020,16:21,57.83,57.83,57.64,57.67, 2800
03/06/2020,16:21,57.7,57.83,57.67,57.83, 6045
03/06/2020,16:22,57.84,57.85,57.7,57.7, 3171
03/06/2020,16:23,57.67,57.71,57.64,57.65, 4841
03/06/2020,16:24,57.68,57.87,57.68,57.87, 5403
03/06/2020,16:25,57.9,57.99,57.81,57.81, 4600
03/06/2020,16:26,57.81,58.18,57.81,58.11, 6869
03/06/2020,16:27,58.09,58.42,58.08,58.4, 9680
03/06/2020,16:28,58.4,58.52,58.37,58.52, 4500
03/06/2020,16:29,58.53,58.76,58.53,58.7, 8639
03/06/2020,16:30,58.73,58.73,58.4,58.48, 8150
03/06/2020,16:31,58.61,58.71,58.58,58.71, 2907
03/06/2020,16:32,58.82,58.95,58.56,58.56, 12347
03/06/2020,16:32,58.59,58.78,58.57,58.71, 7107
03/06/2020,16:34,58.68,58.74,58.55,58.56, 11187
03/06/2020,16:35,58.59,58.69,58.5,58.58, 1800
03/06/2020,16:36,58.51,58.62,58.35,58.36, 8727
03/06/2020,16:37,58.37,58.43,58.19,58.24, 3473
03/06/2020,16:38,58.36,58.53,58.36,58.53, 2900
03/06/2020,16:39,58.42,58.56,58.37,58.41, 5700
03/06/2020,16:39,58.4,58.61,58.4,58.59, 4161
03/06/2020,16:40,58.61,58.76,58.6,58.71, 6678
03/06/2020,16:41,58.66,58.69,58.46,58.46, 7899
03/06/2020,16:43,58.49,58.66,58.49,58.6, 13663
03/06/2020,16:43,58.54,58.65,58.51,58.51, 13497
03/06/2020,16:45,58.53,58.64,58.47,58.5, 14081
03/06/2020,16:46,58.55,58.61,58.47,58.49, 10638
03/06/2020,16:47,58.49,58.5,58.24,58.29, 8210
03/06/2020,16:48,58.37,58.41,58.29,58.3, 1970
03/06/2020,16:49,58.3,58.39,58.22,58.22, 5029
03/06/2020,16:49,58.24,58.44,58.23,58.44, 3280
03/06/2020,16:51,58.51,58.57,58.43,58.55, 3906
03/06/2020,16:51,58.55,58.66,58.54,58.54, 4212
03/06/2020,16:52,58.58,58.74,58.58,58.66, 6609
03/06/2020,16:53,58.65,58.7,58.54,58.62, 7981
03/06/2020,16:54,58.67,58.67,58.48,58.48, 6296
03/06/2020,16:55,58.46,58.61,58.45,58.55, 2200
03/06/2020,16:56,58.57,58.57,58.38,58.51, 9295
03/06/2020,16:57,58.53,58.57,58.35,58.37, 7314
03/06/2020,16:58,58.35,58.35,58.07,58.07, 8930
03/06/2020,16:59,58.06,58.08,57.85,57.87, 19250
03/06/2020,17:00,57.85,57.85,57.62,57.66, 15544
03/06/2020,17:01,57.65,57.72,57.48,57.56, 9168
03/06/2020,17:01,57.54,57.7,57.47,57.58, 21377
03/06/2020,17:02,57.51,57.59,57.41,57.46, 17061
03/06/2020,17:04,57.43,57.54,57.17,57.29, 25169
03/06/2020,17:05,57.31,57.44,57.19,57.24, 14373
03/06/2020,17:06,57.22,57.28,57.07,57.11, 21368
03/06/2020,17:07,57.1,57.11,56.8,56.94, 53692
03/06/2020,17:08,56.94,57.06,56.88,56.88, 22842
03/06/2020,17:09,56.93,56.98,56.67,56.72, 20567
03/06/2020,17:10,56.72,56.76,56.51,56.57, 27693
03/06/2020,17:12,56.56,56.58,56.36,56.45, 40923
03/06/2020,17:13,56.43,56.51,56.28,56.28, 43594
03/06/2020,17:14,56.31,56.32,55.9,55.91, 22441
03/06/2020,17:15,55.96,56.03,55.57,55.6, 47563
03/06/2020,17:16,55.6,55.82,55.5,55.54, 47493
03/06/2020,17:17,55.57,55.8,55.57,55.74, 42419
03/06/2020,17:18,55.79,55.97,55.79,55.93, 24015
03/06/2020,17:19,55.94,56.02,55.8,55.85, 15814
03/06/2020,17:20,55.88,55.92,55.77,55.83, 15452
03/06/2020,17:21,55.8,55.8,55.58,55.58, 18339
03/06/2020,17:22,55.6,55.71,55.58,55.58, 17005
03/06/2020,17:23,55.59,55.66,55.05,55.12, 91396
03/06/2020,17:25,55.13,55.92,55.13,55.87, 93935
03/06/2020,17:26,55.93,55.97,55.71,55.8, 46666
03/06/2020,17:27,55.8,56,55.65,55.69, 87013
03/06/2020,17:29,55.69,55.74,54.8,55.04, 290104
03/06/2020,17:30,55,55.07,54.77,54.88, 91358
03/06/2020,17:31,54.9,54.98,54.86,54.91, 27591
03/06/2020,17:33,54.95,55.23,54.9,55.23, 139485
03/06/2020,17:34,55.2,55.75,55.19,55.69, 43662
03/06/2020,17:36,55.64,55.77,55.63,55.71, 22716
03/06/2020,17:36,55.69,55.8,55.62,55.71, 12225
03/06/2020,17:38,55.73,55.9,55.73,55.86, 12574
03/06/2020,17:39,55.89,56.13,55.89,56.12, 11934
03/06/2020,17:39,56.14,56.21,55.93,56.02, 16041
03/06/2020,17:41,55.99,56.13,55.97,56.09, 20178
03/06/2020,17:42,56.02,56.04,55.9,56, 12964
03/06/2020,17:43,55.96,56.1,55.9,56.01, 10350
03/06/2020,17:43,56.01,56.03,55.91,55.97, 8828
03/06/2020,17:45,55.99,55.99,55.87,55.89, 4787
03/06/2020,17:46,55.85,55.93,55.79,55.88, 7395
03/06/2020,17:47,55.9,55.9,55.79,55.79, 4345
03/06/2020,17:48,55.8,55.83,55.74,55.81, 4299
03/06/2020,17:48,55.81,55.81,55.67,55.72, 4077
03/06/2020,17:49,55.75,55.81,55.74,55.77, 7284
03/06/2020,17:51,55.75,55.75,55.7,55.75, 5504
03/06/2020,17:51,55.75,55.86,55.73,55.81, 5335
03/06/2020,17:53,55.85,55.87,55.77,55.78, 16735
03/06/2020,17:54,55.8,55.92,55.8,55.92, 3454
03/06/2020,17:55,55.91,55.97,55.79,55.82, 6402
03/06/2020,17:56,55.9,55.9,55.83,55.83, 4769
03/06/2020,17:57,55.84,55.84,55.71,55.82, 7703
03/06/2020,17:57,55.82,55.82,55.65,55.68, 10882
03/06/2020,17:59,55.67,55.81,55.64,55.79, 8795
03/06/2020,17:59,55.79,55.98,55.79,55.95, 5396
03/06/2020,18:01,55.98,55.99,55.92,55.99, 5163
03/06/2020,18:02,55.99,56,55.86,55.89, 14394
03/06/2020,18:03,55.89,55.96,55.85,55.9, 8574
03/06/2020,18:04,55.92,55.92,55.81,55.85, 14528
03/06/2020,18:04,55.85,55.93,55.77,55.77, 19854
03/06/2020,18:06,55.77,55.77,55.64,55.64, 4300
03/06/2020,18:07,55.68,55.68,55.5,55.52, 5636
03/06/2020,18:08,55.53,55.54,55.42,55.51, 11485
03/06/2020,18:09,55.52,55.69,55.52,55.63, 10281
03/06/2020,18:10,55.61,55.73,55.6,55.73, 15550
03/06/2020,18:11,55.73,55.76,55.69,55.69, 6561
03/06/2020,18:12,55.69,55.69,55.56,55.58, 4500
03/06/2020,18:13,55.57,55.57,55.44,55.5, 12024
03/06/2020,18:14,55.48,55.53,55.4,55.43, 12835
03/06/2020,18:15,55.43,55.51,55.41,55.48, 8264
03/06/2020,18:16,55.49,55.59,55.48,55.56, 14201
03/06/2020,18:17,55.56,55.71,55.55,55.68, 6242
03/06/2020,18:17,55.68,55.7,55.6,55.6, 51522
03/06/2020,18:19,55.63,55.67,55.49,55.5, 7452
03/06/2020,18:20,55.52,55.52,55.45,55.5, 10282
03/06/2020,18:21,55.49,55.58,55.49,55.58, 11660
03/06/2020,18:22,55.58,55.72,55.57,55.68, 21911
03/06/2020,18:22,55.72,55.72,55.51,55.52, 10792
03/06/2020,18:24,55.53,55.64,55.51,55.56, 27172
03/06/2020,18:25,55.57,55.57,55.43,55.45, 18779
03/06/2020,18:26,55.43,55.57,55.38,55.38, 28500
03/06/2020,18:27,55.39,55.5,55.39,55.46, 15104
03/06/2020,18:28,55.46,55.51,55.43,55.47, 14358
03/06/2020,18:29,55.47,55.53,55.47,55.49, 17266
03/06/2020,18:30,55.5,55.5,55.41,55.43, 5806
03/06/2020,18:31,55.44,55.51,55.44,55.47, 14940
03/06/2020,18:32,55.46,55.57,55.45,55.56, 14127
03/06/2020,18:33,55.55,55.55,55.44,55.44, 9509
03/06/2020,18:34,55.41,55.43,55.36,55.43, 8420
03/06/2020,18:35,55.44,55.5,55.41,55.5, 7685
03/06/2020,18:36,55.5,55.55,55.49,55.52, 38369
03/06/2020,18:37,55.48,55.5,55.42,55.5, 40174
03/06/2020,18:38,55.5,55.52,55.46,55.48, 6000
03/06/2020,18:39,55.5,55.6,55.5,55.55, 9753
03/06/2020,18:40,55.56,55.65,55.5,55.54, 17021
03/06/2020,18:41,55.53,55.58,55.47,55.48, 6209
03/06/2020,18:42,55.45,55.48,55.35,55.39, 7040
03/06/2020,18:43,55.41,55.47,55.39,55.47, 4609
03/06/2020,18:44,55.46,55.54,55.44,55.47, 6399
03/06/2020,18:45,55.5,55.51,55.43,55.43, 8582
03/06/2020,18:46,55.45,55.53,55.45,55.5, 7816
03/06/2020,18:46,55.53,55.59,55.51,55.52, 15687
03/06/2020,18:48,55.54,55.57,55.42,55.45, 10890
03/06/2020,18:49,55.42,55.42,55.36,55.37, 10305
03/06/2020,18:50,55.35,55.44,55.32,55.44, 14610
03/06/2020,18:50,55.44,55.49,55.42,55.47, 8619
03/06/2020,18:52,55.46,55.47,55.43,55.46, 4470
03/06/2020,18:53,55.47,55.55,55.46,55.5, 15168
03/06/2020,18:54,55.48,55.48,55.38,55.39, 8886
03/06/2020,18:54,55.41,55.42,55.35,55.36, 5133
03/06/2020,18:56,55.34,55.37,55.32,55.37, 4200
03/06/2020,18:57,55.35,55.37,55.3,55.32, 10367
03/06/2020,18:57,55.3,55.36,55.29,55.29, 6379
03/06/2020,18:59,55.3,55.32,55.22,55.3, 5853
03/06/2020,19:00,55.28,55.41,55.28,55.41, 13328
03/06/2020,19:01,55.43,55.5,55.43,55.44, 9904
03/06/2020,19:02,55.47,55.51,55.44,55.44, 7112
03/06/2020,19:02,55.46,55.56,55.46,55.52, 11391
03/06/2020,19:04,55.51,55.56,55.48,55.54, 3401
03/06/2020,19:04,55.52,55.56,55.46,55.5, 3605
03/06/2020,19:06,55.5,55.56,55.48,55.52, 12235
03/06/2020,19:07,55.53,55.57,55.52,55.55, 9980
03/06/2020,19:07,55.54,55.61,55.54,55.58, 9274
03/06/2020,19:09,55.58,55.62,55.55,55.59, 6702
03/06/2020,19:10,55.57,55.6,55.47,55.54, 6136
03/06/2020,19:11,55.54,55.58,55.53,55.56, 7122
03/06/2020,19:11,55.56,55.58,55.5,55.5, 2735
03/06/2020,19:13,55.5,55.5,55.41,55.44, 6203
03/06/2020,19:14,55.43,55.48,55.43,55.47, 14360
03/06/2020,19:15,55.48,55.55,55.48,55.55, 5800
03/06/2020,19:15,55.51,55.56,55.5,55.5, 4078
03/06/2020,19:16,55.52,55.61,55.5,55.6, 9400
03/06/2020,19:18,55.61,55.68,55.61,55.67, 8797
03/06/2020,19:19,55.68,55.81,55.67,55.79, 6987
03/06/2020,19:20,55.79,55.84,55.77,55.83, 12488
03/06/2020,19:21,55.84,55.84,55.79,55.82, 8722
03/06/2020,19:22,55.82,55.87,55.79,55.85, 8674
03/06/2020,19:22,55.86,55.9,55.85,55.88, 17542
03/06/2020,19:24,55.89,56.02,55.89,56, 11249
03/06/2020,19:24,56.01,56.14,56,56.14, 9967
03/06/2020,19:26,56.12,56.13,56.04,56.05, 4729
03/06/2020,19:27,56.02,56.04,55.83,55.83, 12916
03/06/2020,19:28,55.84,55.87,55.75,55.85, 11326
03/06/2020,19:29,55.83,55.88,55.82,55.85, 3716
03/06/2020,19:30,55.82,55.89,55.82,55.88, 12700
03/06/2020,19:31,55.88,55.89,55.67,55.73, 24163
03/06/2020,19:32,55.73,55.78,55.69,55.73, 17067
03/06/2020,19:33,55.73,55.73,55.63,55.63, 3668
03/06/2020,19:34,55.61,55.61,55.56,55.58, 3209
03/06/2020,19:34,55.58,55.61,55.46,55.47, 29141
03/06/2020,19:36,55.45,55.45,55.35,55.35, 5899
03/06/2020,19:37,55.35,55.36,55.32,55.32, 3004
03/06/2020,19:38,55.33,55.35,55.3,55.34, 9144
03/06/2020,19:39,55.31,55.44,55.3,55.43, 12270
03/06/2020,19:40,55.42,55.45,55.37,55.38, 8000
03/06/2020,19:41,55.41,55.52,55.38,55.49, 8756
03/06/2020,19:42,55.51,55.58,55.49,55.55, 6646
03/06/2020,19:43,55.54,55.57,55.48,55.53, 8685
03/06/2020,19:44,55.51,55.53,55.44,55.49, 4895
03/06/2020,19:45,55.49,55.51,55.39,55.47, 8242
03/06/2020,19:46,55.47,55.49,55.37,55.39, 6492
03/06/2020,19:47,55.39,55.39,55.16,55.21, 24307
03/06/2020,19:48,55.19,55.2,55.14,55.17, 3779
03/06/2020,19:48,55.18,55.23,55.17,55.21, 4900
03/06/2020,19:49,55.23,55.23,55.17,55.17, 12031
03/06/2020,19:51,55.16,55.18,55.1,55.14, 9661
03/06/2020,19:52,55.16,55.21,55.12,55.12, 19446
03/06/2020,19:53,55.14,55.14,55.05,55.07, 6720
03/06/2020,19:54,55.06,55.06,54.97,55, 24700
03/06/2020,19:55,54.99,55.06,54.88,54.9, 12016
03/06/2020,19:56,54.88,54.93,54.82,54.86, 7999
03/06/2020,19:57,54.86,54.94,54.85,54.94, 6975
03/06/2020,19:58,54.95,54.99,54.89,54.91, 7600
03/06/2020,19:58,54.88,54.93,54.88,54.91, 4996
03/06/2020,19:59,54.95,55.01,54.91,54.91, 3568
03/06/2020,20:01,54.91,54.92,54.86,54.88, 4780
03/06/2020,20:02,54.84,54.88,54.81,54.86, 6597
03/06/2020,20:02,54.84,54.92,54.84,54.86, 8723
03/06/2020,20:04,54.83,54.86,54.81,54.84, 7058
03/06/2020,20:05,54.81,54.86,54.77,54.79, 13321
03/06/2020,20:06,54.8,54.88,54.8,54.88, 9363
03/06/2020,20:07,54.9,54.93,54.83,54.9, 9762
03/06/2020,20:08,54.9,54.9,54.81,54.83, 6267
03/06/2020,20:09,54.84,54.84,54.75,54.75, 5157
03/06/2020,20:10,54.75,54.76,54.67,54.69, 11468
03/06/2020,20:11,54.68,54.7,54.65,54.65, 12420
03/06/2020,20:12,54.66,54.73,54.66,54.7, 6557
03/06/2020,20:13,54.69,54.69,54.61,54.66, 7924
03/06/2020,20:14,54.66,54.74,54.66,54.72, 10708
03/06/2020,20:15,54.72,54.75,54.68,54.68, 8522
03/06/2020,20:16,54.69,54.73,54.68,54.73, 13588
03/06/2020,20:17,54.72,54.73,54.66,54.7, 16506
03/06/2020,20:18,54.72,54.77,54.69,54.71, 20655
03/06/2020,20:19,54.67,54.69,54.65,54.65, 5305
03/06/2020,20:20,54.68,54.68,54.58,54.6, 21611
03/06/2020,20:21,54.61,54.63,54.57,54.61, 10246
03/06/2020,20:21,54.6,54.63,54.54,54.57, 9326
03/06/2020,20:23,54.57,54.6,54.54,54.58, 7646
03/06/2020,20:23,54.57,54.65,54.57,54.59, 7858
03/06/2020,20:24,54.57,54.62,54.54,54.59, 10421
03/06/2020,20:26,54.6,54.64,54.57,54.61, 7051
03/06/2020,20:27,54.59,54.75,54.57,54.75, 7436
03/06/2020,20:28,54.73,54.78,54.72,54.77, 4765
03/06/2020,20:29,54.78,54.79,54.66,54.66, 10181
03/06/2020,20:30,54.65,54.7,54.62,54.62, 2800
03/06/2020,20:30,54.56,54.61,54.55,54.6, 5894
03/06/2020,20:32,54.55,54.64,54.55,54.64, 7386
03/06/2020,20:33,54.63,54.63,54.55,54.61, 7546
03/06/2020,20:34,54.61,54.63,54.53,54.53, 4283
03/06/2020,20:35,54.53,54.68,54.51,54.68, 20850
03/06/2020,20:36,54.67,54.68,54.52,54.54, 10582
03/06/2020,20:37,54.54,54.55,54.47,54.49, 8522
03/06/2020,20:38,54.5,54.53,54.42,54.48, 6986
03/06/2020,20:39,54.49,54.52,54.41,54.47, 12546
03/06/2020,20:40,54.47,54.54,54.47,54.48, 71226
03/06/2020,20:41,54.48,54.55,54.45,54.52, 21217
03/06/2020,20:42,54.52,54.52,54.26,54.27, 30498
03/06/2020,20:43,54.27,54.32,54.19,54.23, 16367
03/06/2020,20:44,54.26,54.3,54.22,54.28, 12184
03/06/2020,20:44,54.28,54.46,54.24,54.43, 16873
03/06/2020,20:45,54.43,54.44,54.34,54.37, 8123
03/06/2020,20:47,54.34,54.52,54.34,54.48, 9879
03/06/2020,20:48,54.46,54.49,54.34,54.39, 12122
03/06/2020,20:49,54.39,54.43,54.34,54.41, 7753
03/06/2020,20:50,54.41,54.53,54.41,54.45, 15981
03/06/2020,20:51,54.42,54.45,54.37,54.38, 13084
03/06/2020,20:52,54.39,54.39,54.33,54.33, 6638
03/06/2020,20:52,54.34,54.42,54.32,54.37, 15939
03/06/2020,20:54,54.37,54.4,54.35,54.35, 4366
03/06/2020,20:55,54.35,54.46,54.35,54.44, 11172
03/06/2020,20:56,54.43,54.46,54.38,54.41, 8253
03/06/2020,20:56,54.43,54.55,54.43,54.49, 14680
03/06/2020,20:58,54.47,54.48,54.4,54.4, 12407
03/06/2020,20:58,54.41,54.44,54.39,54.43, 10366
03/06/2020,21:00,54.43,54.57,54.42,54.57, 13796
03/06/2020,21:01,54.58,54.58,54.38,54.42, 8571
03/06/2020,21:01,54.41,54.47,54.36,54.36, 5508
03/06/2020,21:03,54.35,54.35,54.23,54.23, 2713
03/06/2020,21:03,54.25,54.26,54.23,54.24, 6125
03/06/2020,21:04,54.24,54.27,54.22,54.27, 6723
03/06/2020,21:05,54.3,54.31,54.22,54.24, 6632
03/06/2020,21:07,54.22,54.22,54.14,54.15, 10639
03/06/2020,21:08,54.15,54.15,54.05,54.09, 13138
03/06/2020,21:09,54.07,54.11,53.94,54, 71478
03/06/2020,21:10,53.97,54.16,53.97,54.14, 139839
03/06/2020,21:11,54.15,54.19,54.08,54.14, 11160
03/06/2020,21:12,54.14,54.25,54.14,54.25, 23803
03/06/2020,21:13,54.25,54.41,54.25,54.39, 31097
03/06/2020,21:14,54.4,54.47,54.4,54.47, 20074
03/06/2020,21:15,54.5,54.51,54.37,54.37, 19660
03/06/2020,21:16,54.38,54.38,54.24,54.27, 13649
03/06/2020,21:16,54.28,54.39,54.26,54.38, 13970
03/06/2020,21:18,54.39,54.43,54.26,54.35, 81026
03/06/2020,21:19,54.34,54.46,54.32,54.33, 11478
03/06/2020,21:20,54.35,54.46,54.35,54.44, 9183
03/06/2020,21:21,54.43,54.44,54.32,54.35, 5917
03/06/2020,21:22,54.34,54.34,54.27,54.29, 15211
03/06/2020,21:23,54.27,54.34,54.19,54.32, 23908
03/06/2020,21:24,54.31,54.32,54.22,54.23, 13462
03/06/2020,21:25,54.22,54.22,54.13,54.19, 20387
03/06/2020,21:25,54.2,54.25,54.2,54.25, 11198
03/06/2020,21:27,54.26,54.32,54.23,54.3, 18243
03/06/2020,21:28,54.31,54.31,54.17,54.17, 313097
03/06/2020,21:29,54.16,54.25,54.16,54.19, 28264
03/06/2020,21:30,54.19,54.21,54.11,54.11, 13874
03/06/2020,21:30,54.11,54.12,54.01,54.01, 17244
03/06/2020,21:31,54,54.08,53.87,54.07, 88297
03/06/2020,21:32,54.07,54.46,54.06,54.46, 68593
03/06/2020,21:33,54.47,54.52,54.37,54.47, 43823
03/06/2020,21:34,54.46,54.49,54.38,54.44, 33206
03/06/2020,21:35,54.47,54.55,54.45,54.47, 27864
03/06/2020,21:36,54.5,54.73,54.46,54.7, 25354
03/06/2020,21:37,54.68,54.72,54.58,54.58, 22591
03/06/2020,21:38,54.59,54.62,54.48,54.48, 428651
03/06/2020,21:39,54.46,54.48,54.36,54.38, 23057
03/06/2020,21:41,54.38,54.39,54.3,54.32, 18290
03/06/2020,21:42,54.32,54.35,54.26,54.29, 17369
03/06/2020,21:42,54.28,54.45,54.27,54.43, 35880
03/06/2020,21:44,54.44,54.46,54.38,54.39, 25000
03/06/2020,21:45,54.4,54.5,54.39,54.47, 26774
03/06/2020,21:45,54.48,54.62,54.46,54.6, 46242
03/06/2020,21:46,54.61,54.72,54.58,54.69, 20084
03/06/2020,21:47,54.72,54.83,54.7,54.76, 24333
03/06/2020,21:48,54.78,54.79,54.71,54.72, 28849
03/06/2020,21:49,54.73,54.74,54.68,54.7, 55280
03/06/2020,21:50,54.69,54.71,54.56,54.7, 34088
03/06/2020,21:51,54.71,55,54.7,55, 50578
03/06/2020,21:52,55.04,55.29,55,55.27, 18228
03/06/2020,21:53,55.26,55.54,55.26,55.53, 29063
03/06/2020,21:54,55.54,55.67,55.51,55.66, 42010
03/06/2020,21:55,55.67,55.92,55.65,55.73, 41904
03/06/2020,21:56,55.75,55.9,55.26,55.28, 83820
03/06/2020,21:57,55.28,55.39,55.13,55.37, 75055
03/06/2020,21:58,55.38,55.53,55.34,55.53, 41140
03/06/2020,21:59,55.52,55.57,55.41,55.43, 44382
03/06/2020,22:00,55.42,55.47,55.39,55.42, 25804
03/06/2020,22:01,55.4,55.41,55.28,55.29, 14192
03/06/2020,22:04,55.3,55.3,55.3,55.3, 692952
03/09/2020,14:31,38.22,38.29,38.04,38.04, 600
03/09/2020,14:32,38.25,38.29,36.68,37.315, 4281
03/09/2020,14:33,37.74,38.06,37.24,37.84, 2120
03/09/2020,14:34,37.38,38.7,37.3,38.7, 2900
03/09/2020,14:35,38.87,39,38.285,38.285, 4810
03/09/2020,14:53,36.4,36.5,36,36.295, 323291
03/09/2020,14:53,36.17,36.22,35.32,35.335, 46376
03/09/2020,14:54,35.32,35.62,35.32,35.43, 39994
03/09/2020,14:55,35.33,35.543,35.25,35.32, 23532
03/09/2020,14:55,35.26,35.37,35.16,35.295, 22112
03/09/2020,14:56,35.303,35.42,35.16,35.24, 44817
03/09/2020,14:56,35.17,35.3,35.07,35.15, 101104
03/09/2020,14:57,35.195,35.55,35.15,35.47, 47343
03/09/2020,14:57,35.72,35.72,35.34,35.388, 21399
03/09/2020,14:58,35.36,35.44,35.12,35.36, 39680
03/09/2020,14:58,35.35,35.35,35.1,35.1, 57472
03/09/2020,14:59,35.11,35.44,34.965,35.4, 58512
03/09/2020,14:59,35.38,35.45,35.22,35.247, 45042
03/09/2020,15:00,35.255,35.77,35.25,35.52, 12043
03/09/2020,15:01,35.808,35.842,35.58,35.63, 19737
03/09/2020,15:01,35.628,35.84,35.52,35.56, 38343
03/09/2020,15:02,35.53,35.67,35.4,35.635, 51821
03/09/2020,15:02,35.7,35.7,35.5,35.535, 55014
03/09/2020,15:03,35.53,35.55,35.18,35.2, 35923
03/09/2020,15:04,35.11,35.24,35.11,35.22, 18675
03/09/2020,15:04,35.215,35.24,35.1,35.15, 46915
03/09/2020,15:05,35.17,35.19,35.03,35.04, 42406
03/09/2020,15:05,35.04,35.15,35,35.05, 31435
03/09/2020,15:06,35.06,35.06,34.89,35.02, 50833
03/09/2020,15:06,35.05,35.25,35.037,35.22, 37674
03/09/2020,15:07,35.26,35.55,35.26,35.5, 25166
03/09/2020,15:07,35.51,35.74,35.5,35.701, 22654
03/09/2020,15:08,35.735,35.905,35.735,35.87, 36101
03/09/2020,15:08,35.83,36.33,35.78,36.16, 35326
03/09/2020,15:09,36.185,36.33,36.08,36.235, 24175
03/09/2020,15:09,36.25,36.3,36.03,36.09, 59710
03/09/2020,15:10,36.13,36.3,36.02,36.17, 46111
03/09/2020,15:11,36.19,36.88,36.155,36.85, 24890
03/09/2020,15:12,36.85,37.355,36.69,37.138, 45073
03/09/2020,15:12,37.16,37.36,37.06,37.359, 32633
03/09/2020,15:13,37.32,37.46,37.315,37.381, 46634
03/09/2020,15:14,37.369,37.71,37.33,37.64, 31393
03/09/2020,15:15,37.645,38,37.5,37.71, 70526
03/09/2020,15:15,37.649,37.89,37.64,37.89, 31967
03/09/2020,15:16,37.83,38,37.69,37.965, 28180
03/09/2020,15:16,37.94,38.41,37.93,38.38, 35126
03/09/2020,15:17,38.37,38.64,38.37,38.51, 27010
03/09/2020,15:18,38.405,38.45,38,38.14, 43727
03/09/2020,15:19,38.15,38.67,38.11,38.66, 27262
03/09/2020,15:19,38.643,40,38.63,39.55, 102027
03/09/2020,15:20,39.55,39.58,39.37,39.44, 61844
03/09/2020,15:21,39.43,39.475,39,39.042, 16579
03/09/2020,15:22,39.02,39.05,38.6,38.645, 68290
03/09/2020,15:22,38.61,38.7,38.6,38.64, 29290
03/09/2020,15:23,38.64,38.64,38.25,38.25, 38843
03/09/2020,15:24,38.264,38.51,38.17,38.41, 44846
03/09/2020,15:24,38.481,38.5,38.25,38.33, 25720
03/09/2020,15:25,38.31,38.49,38.22,38.49, 35060
03/09/2020,15:26,38.49,38.49,38.22,38.295, 43450
03/09/2020,15:27,38.23,38.34,38.02,38.31, 39888
03/09/2020,15:27,38.29,38.34,38.125,38.205, 43393
03/09/2020,15:28,38.205,38.32,38.18,38.23, 6810
03/09/2020,15:28,38.18,38.42,38.18,38.34, 16669
03/09/2020,15:29,38.32,38.71,38.29,38.675, 35561
03/09/2020,15:30,38.72,39.06,38.676,38.77, 62863
03/09/2020,15:31,38.75,38.96,38.54,38.62, 112363
03/09/2020,15:31,38.67,38.77,38.45,38.65, 62232
03/09/2020,15:32,38.63,38.82,38.62,38.785, 7448
03/09/2020,15:32,38.82,39.05,38.78,38.98, 47833
03/09/2020,15:33,39.07,39.16,38.87,39.1, 42930
03/09/2020,15:34,39.1,39.53,39.09,39.53, 40115
03/09/2020,15:35,39.47,40.18,39.47,40.06, 73677
03/09/2020,15:35,40.07,40.16,39.63,39.67, 44992
03/09/2020,15:36,39.67,39.705,39.475,39.61, 37401
03/09/2020,15:37,39.58,39.58,39.33,39.41, 34472
03/09/2020,15:38,39.435,39.44,39.25,39.4, 22610
03/09/2020,15:38,39.37,39.47,39.02,39.04, 27143
03/09/2020,15:39,39.06,39.36,39.02,39.12, 124248
03/09/2020,15:40,39.07,39.345,38.86,38.86, 34501
03/09/2020,15:41,38.89,39.07,38.71,39.07, 40498
03/09/2020,15:42,38.97,39.07,38.87,38.97, 10716
03/09/2020,15:43,38.95,39.29,38.94,39.25, 14558
03/09/2020,15:43,39.25,39.56,39.24,39.42, 44724
03/09/2020,15:44,39.425,39.49,39.15,39.199, 24004
03/09/2020,15:45,39.17,39.34,39.11,39.33, 22134
03/09/2020,15:46,39.3,39.31,39.1,39.1, 31454
03/09/2020,15:47,39.1,39.12,38.91,38.92, 32675
03/09/2020,15:47,38.94,38.97,38.845,38.86, 17631
03/09/2020,15:48,38.88,39.19,38.818,39.16, 66849
03/09/2020,15:49,39.14,39.359,38.99,39.2, 29993
03/09/2020,15:50,39.23,39.45,39.2,39.37, 34671
03/09/2020,15:50,39.36,39.6,39.36,39.6, 20118
03/09/2020,15:51,39.57,39.57,39.41,39.44, 20135
03/09/2020,15:51,39.435,39.52,39.36,39.36, 22464
03/09/2020,15:52,39.34,39.41,39.13,39.41, 35921
03/09/2020,15:53,39.42,39.5,39.23,39.44, 42663
03/09/2020,15:53,39.41,39.51,39.41,39.47, 16763
03/09/2020,15:54,39.472,39.472,39.38,39.395, 11592
03/09/2020,15:54,39.42,39.48,39.38,39.445, 23048
03/09/2020,15:55,39.445,39.46,39.25,39.255, 43636
03/09/2020,15:56,39.24,39.24,39.13,39.22, 31352
03/09/2020,15:56,39.2,39.31,39.065,39.2, 41950
03/09/2020,15:57,39.19,39.19,39.005,39.04, 25380
03/09/2020,15:58,39.04,39.05,38.81,38.89, 52238
03/09/2020,15:59,38.89,38.96,38.874,38.95, 13786
03/09/2020,15:59,38.97,38.97,38.9,38.945, 9623
03/09/2020,16:00,38.96,39.17,38.96,39.125, 16248
03/09/2020,16:01,39.13,39.26,39.12,39.22, 30860
03/09/2020,16:01,39.21,39.28,39.04,39.07, 18456
03/09/2020,16:02,39.07,39.23,39.05,39.21, 27970
03/09/2020,16:03,39.21,39.24,39.12,39.16, 34244
03/09/2020,16:03,39.16,39.46,39.12,39.43, 30271
03/09/2020,16:04,39.43,39.51,39.34,39.44, 31392
03/09/2020,16:07,39.44,39.645,39.38,39.42, 41063
03/09/2020,16:07,39.44,39.44,39.31,39.325, 7390
03/09/2020,16:08,39.31,39.31,39.12,39.13, 15115
03/09/2020,16:09,39.13,39.21,39.05,39.12, 38437
03/09/2020,16:10,39.13,39.135,39.01,39.029, 17902
03/09/2020,16:11,39,39.19,39,39.16, 30779
03/09/2020,16:12,39.179,39.415,39.17,39.385, 32372
03/09/2020,16:12,39.385,39.385,39.32,39.34, 27435
03/09/2020,16:13,39.35,39.37,39.2,39.2, 15596
03/09/2020,16:14,39.2,39.29,39.2,39.26, 11610
03/09/2020,16:14,39.255,39.26,38.99,39.015, 15482
03/09/2020,16:15,39.025,39.18,39,39.055, 29968
03/09/2020,16:16,39.055,39.055,38.75,38.76, 22235
03/09/2020,16:17,38.74,38.905,38.72,38.87, 28098
03/09/2020,16:18,38.875,38.92,38.82,38.9, 21454
03/09/2020,16:19,38.895,38.98,38.87,38.92, 22617
03/09/2020,16:20,38.92,38.94,38.89,38.93, 20497
03/09/2020,16:21,38.924,38.96,38.85,38.87, 55201
03/09/2020,16:22,38.85,38.89,38.79,38.82, 23138
03/09/2020,16:23,38.82,38.925,38.8,38.81, 64759
03/09/2020,16:24,38.8,38.99,38.8,38.96, 20534
03/09/2020,16:24,38.98,39.07,38.93,38.995, 22591
03/09/2020,16:25,38.99,39.06,38.93,39.015, 33158
03/09/2020,16:26,39.02,39.14,39.01,39.14, 21896
03/09/2020,16:27,39.16,39.21,39.015,39.08, 22147
03/09/2020,16:28,39.09,39.1,39.01,39.015, 11976
03/09/2020,16:29,39.02,39.07,38.9,38.96, 29688
03/09/2020,16:30,38.94,39.06,38.94,38.95, 28553
03/09/2020,16:31,38.955,39.06,38.93,39.02, 48420
03/09/2020,16:31,39,39.12,38.96,38.99, 28872
03/09/2020,16:32,39,39,38.95,38.97, 9619
03/09/2020,16:33,38.97,39.04,38.96,38.99, 18049
03/09/2020,16:33,38.985,39.01,38.97,38.99, 13069
03/09/2020,16:34,38.995,39.06,38.97,39.04, 19207
03/09/2020,16:34,39.04,39.2,39.04,39.1, 21905
03/09/2020,16:35,39.125,39.35,39.1,39.225, 23876
03/09/2020,16:36,39.225,39.265,39.195,39.2, 25067
03/09/2020,16:37,39.205,39.22,39.07,39.14, 27892
03/09/2020,16:38,39.14,39.21,39.11,39.14, 24858
03/09/2020,16:38,39.13,39.15,39.05,39.11, 28516
03/09/2020,16:39,39.11,39.14,39.041,39.041, 11585
03/09/2020,16:40,39.04,39.07,38.95,39.005, 24161
03/09/2020,16:41,39.01,39.03,38.96,38.97, 27738
03/09/2020,16:41,38.985,39.02,38.97,38.98, 57673
03/09/2020,16:42,39.005,39.1,38.98,39.07, 83307
03/09/2020,16:43,39.07,39.09,38.93,38.93, 29953
03/09/2020,16:44,38.93,39.03,38.92,38.92, 27162
03/09/2020,16:45,38.93,38.935,38.71,38.76, 30119
03/09/2020,16:47,38.74,38.775,38.68,38.685, 23650
03/09/2020,16:48,38.675,38.8,38.65,38.745, 19180
03/09/2020,16:49,38.74,38.76,38.65,38.67, 18360
03/09/2020,16:50,38.67,38.72,38.67,38.7, 24947
03/09/2020,16:52,38.7,38.955,38.7,38.923, 38082
03/09/2020,16:53,38.91,39.08,38.91,38.95, 174595
03/09/2020,16:54,38.95,39.06,38.89,38.891, 50505
03/09/2020,16:56,38.895,38.97,38.81,38.89, 30307
03/09/2020,16:57,38.89,38.95,38.78,38.89, 24759
03/09/2020,16:59,38.89,39,38.86,38.99, 24812
03/09/2020,17:00,38.975,39.32,38.93,39.295, 51766
03/09/2020,17:01,39.299,39.5,39.299,39.39, 62089
03/09/2020,17:02,39.37,39.45,39.32,39.45, 20993
03/09/2020,17:03,39.46,39.47,39.23,39.245, 26518
03/09/2020,17:04,39.28,39.39,39.19,39.38, 19710
03/09/2020,17:06,39.36,39.43,39.28,39.395, 15423
03/09/2020,17:07,39.39,39.49,39.39,39.42, 32142
03/09/2020,17:08,39.42,39.535,39.36,39.48, 35941
03/09/2020,17:09,39.47,39.67,39.47,39.65, 43114
03/09/2020,17:10,39.63,39.699,39.57,39.68, 37547
03/09/2020,17:11,39.67,39.8,39.64,39.76, 24260
03/09/2020,17:12,39.75,39.796,39.66,39.78, 26726
03/09/2020,17:13,39.78,39.82,39.74,39.76, 13184
03/09/2020,17:14,39.78,39.79,39.61,39.61, 24343
03/09/2020,17:16,39.61,39.71,39.51,39.56, 30893
03/09/2020,17:17,39.59,39.83,39.59,39.81, 27286
03/09/2020,17:18,39.82,40.14,39.82,39.96, 41380
03/09/2020,17:19,40,40.06,39.95,39.99, 36418
03/09/2020,17:21,39.98,39.99,39.76,39.77, 24556
03/09/2020,17:22,39.775,39.78,39.56,39.56, 29973
03/09/2020,17:23,39.56,39.56,39.33,39.41, 81175
03/09/2020,17:24,39.39,39.476,39.35,39.445, 28840
03/09/2020,17:25,39.48,39.5,39.41,39.49, 22904
03/09/2020,17:27,39.47,39.55,39.45,39.51, 36219
03/09/2020,17:29,39.52,39.57,39.15,39.165, 58394
03/09/2020,17:30,39.16,39.16,39,39.05, 51809
03/09/2020,17:31,39.05,39.06,38.97,39.02, 22043
03/09/2020,17:32,39.03,39.03,38.87,38.87, 42324
03/09/2020,17:34,38.87,39.11,38.86,39.09, 125836
03/09/2020,17:36,39.09,39.1,38.94,38.96, 36925
03/09/2020,17:37,38.96,38.99,38.9,38.97, 50075
03/09/2020,17:39,38.97,39.32,38.97,39.27, 67325
03/09/2020,17:41,39.285,39.36,39.23,39.34, 30295
03/09/2020,17:43,39.34,39.4,39.2,39.29, 39279
03/09/2020,17:45,39.28,39.33,39.17,39.18, 27441
03/09/2020,17:46,39.195,39.52,39.15,39.51, 50128
03/09/2020,17:48,39.52,39.6,39.4,39.52, 90397
03/09/2020,17:50,39.52,39.57,39.37,39.37, 88389
03/09/2020,17:52,39.355,39.39,39.26,39.3, 49831
03/09/2020,17:54,39.295,39.37,39.23,39.325, 29670
03/09/2020,17:56,39.33,39.405,39.22,39.22, 43171
03/09/2020,17:57,39.21,39.41,39.21,39.4, 38237
03/09/2020,18:00,39.4,39.45,39.33,39.4, 42880
03/09/2020,18:01,39.42,39.43,39.27,39.31, 33698
03/09/2020,18:03,39.28,39.34,39.2,39.2, 35134
03/09/2020,18:05,39.2,39.2,38.44,38.49, 103800
03/09/2020,18:07,38.49,38.65,38.48,38.5, 58927
03/09/2020,18:09,38.51,38.51,38.3,38.41, 60553
03/09/2020,18:11,38.445,38.48,38.335,38.35, 22165
03/09/2020,18:13,38.35,38.42,38.29,38.4, 58946
03/09/2020,18:16,38.4,38.65,38.4,38.6, 52071
03/09/2020,18:18,38.6,38.62,38.36,38.43, 86859
03/09/2020,18:20,38.43,38.46,38.37,38.44, 87518
03/09/2020,18:22,38.42,38.48,38.37,38.4, 72091
03/09/2020,18:25,38.415,38.53,38.37,38.53, 42333
03/09/2020,18:27,38.53,38.6,38.43,38.535, 33273
03/09/2020,18:29,38.54,38.58,38.17,38.17, 33238
03/09/2020,18:31,38.17,38.21,37.72,37.73, 91362
03/09/2020,18:34,37.71,37.82,37.61,37.785, 112117
03/09/2020,18:36,37.79,37.92,37.745,37.9, 52041
03/09/2020,18:37,37.89,38.06,37.89,38, 64367
03/09/2020,18:39,38.01,38.01,37.87,37.895, 43585
03/09/2020,18:40,37.89,37.89,37.72,37.75, 54692
03/09/2020,18:42,37.75,37.8,37.68,37.76, 53176
03/09/2020,18:43,37.76,37.77,37.7,37.715, 44222
03/09/2020,18:44,37.7,37.78,37.68,37.725, 29280
03/09/2020,18:45,37.725,37.725,37.56,37.57, 23246
03/09/2020,18:46,37.56,37.84,37.54,37.84, 72281
03/09/2020,18:47,37.85,38.05,37.84,38.03, 34805
03/09/2020,18:48,38.035,38.065,37.86,37.87, 33982
03/09/2020,18:51,38.03,38.09,37.91,37.91, 16402
03/09/2020,18:52,37.91,37.91,37.8,37.836, 15209
03/09/2020,18:53,37.825,37.84,37.73,37.73, 20980
03/09/2020,18:54,37.735,37.895,37.71,37.85, 31560
03/09/2020,18:55,37.86,37.93,37.81,37.92, 21612
03/09/2020,18:56,37.91,37.93,37.79,37.79, 18203
03/09/2020,18:57,37.8,37.98,37.76,37.94, 30951
03/09/2020,18:58,37.94,38,37.9,37.97, 24598
03/09/2020,18:59,37.98,38.07,37.92,38.02, 33035
03/09/2020,19:00,38.015,38.017,37.91,37.96, 26925
03/09/2020,19:01,37.965,37.97,37.79,37.79, 25421
03/09/2020,19:02,37.815,37.9,37.75,37.9, 21621
03/09/2020,19:03,37.9,37.9,37.77,37.85, 22070
03/09/2020,19:04,37.84,37.87,37.75,37.785, 21991
03/09/2020,19:05,37.785,37.785,37.68,37.705, 28450
03/09/2020,19:06,37.7,37.73,37.609,37.64, 27620
03/09/2020,19:07,37.64,37.66,37.525,37.57, 33920
03/09/2020,19:08,37.57,37.67,37.52,37.63, 21832
03/09/2020,19:11,37.585,37.585,37.49,37.49, 30529
03/09/2020,19:12,37.49,37.49,37.4,37.43, 22479
03/09/2020,19:13,37.42,37.504,37.37,37.41, 28087
03/09/2020,19:14,37.41,37.59,37.35,37.575, 23670
03/09/2020,19:15,37.56,37.59,37.47,37.58, 33036
03/09/2020,19:16,37.58,37.87,37.57,37.86, 70337
03/09/2020,19:17,37.89,38.01,37.86,37.995, 32847
03/09/2020,19:18,38.015,38.065,37.93,37.98, 36473
03/09/2020,19:19,38.02,38.02,37.835,37.86, 19844
03/09/2020,19:20,37.855,37.92,37.83,37.92, 13102
03/09/2020,19:22,37.8,37.89,37.79,37.88, 8605
03/09/2020,19:23,37.86,37.97,37.86,37.96, 13830
03/09/2020,19:24,37.96,37.96,37.81,37.81, 13454
03/09/2020,19:25,37.827,37.98,37.8,37.97, 22623
03/09/2020,19:26,37.974,38,37.86,38, 20618
03/09/2020,19:27,38.025,38.08,37.98,37.99, 22675
03/09/2020,19:28,37.99,38.01,37.98,38, 16468
03/09/2020,19:29,38,38,37.87,37.93, 16422
03/09/2020,19:30,37.92,37.92,37.86,37.86, 17994
03/09/2020,19:31,37.86,37.88,37.82,37.86, 20846
03/09/2020,19:32,37.87,37.87,37.75,37.78, 17199
03/09/2020,19:33,37.77,37.78,37.6,37.69, 39042
03/09/2020,19:34,37.68,37.7,37.6,37.64, 22631
03/09/2020,19:35,37.63,37.7,37.62,37.68, 27406
03/09/2020,19:36,37.675,37.732,37.66,37.67, 13296
03/09/2020,19:37,37.685,37.81,37.66,37.79, 23231
03/09/2020,19:38,37.79,37.79,37.62,37.62, 34390
03/09/2020,19:39,37.62,37.62,37.5,37.51, 21622
03/09/2020,19:40,37.51,37.828,37.48,37.78, 33286
03/09/2020,19:41,37.8,37.8,37.69,37.71, 16393
03/09/2020,19:42,37.69,37.7,37.58,37.695, 27503
03/09/2020,19:43,37.67,37.68,37.54,37.65, 16368
03/09/2020,19:44,37.625,37.67,37.62,37.62, 15280
03/09/2020,19:45,37.63,37.68,37.58,37.6, 18583
03/09/2020,19:46,37.6,37.69,37.58,37.615, 27909
03/09/2020,19:47,37.61,37.75,37.6,37.7, 22397
03/09/2020,19:48,37.702,37.9,37.66,37.88, 27332
03/09/2020,19:49,37.88,37.97,37.88,37.9, 18049
03/09/2020,19:50,37.9,37.95,37.88,37.93, 15051
03/09/2020,19:51,37.92,38.23,37.83,38.21, 44116
03/09/2020,19:52,38.194,38.71,38.16,38.67, 34817
03/09/2020,19:53,38.69,38.77,38.525,38.57, 39103
03/09/2020,19:54,38.56,38.671,38.54,38.665, 38158
03/09/2020,19:55,38.69,38.7,38.59,38.62, 42901
03/09/2020,19:56,38.61,38.79,38.61,38.765, 29366
03/09/2020,19:57,38.765,38.9,38.72,38.9, 28696
03/09/2020,19:58,38.88,38.985,38.82,38.93, 31797
03/09/2020,19:59,38.94,39.09,38.94,39.073, 17825
03/09/2020,20:00,39.081,39.09,38.97,38.98, 52958
03/09/2020,20:01,38.97,38.97,38.785,38.785, 21305
03/09/2020,20:02,38.77,38.83,38.7,38.7, 20359
03/09/2020,20:03,38.71,38.71,38.53,38.53, 44694
03/09/2020,20:04,38.53,38.546,38.5,38.5, 10010
03/09/2020,20:05,38.51,38.57,38.43,38.57, 21815
03/09/2020,20:06,38.57,38.6,38.425,38.47, 31052
03/09/2020,20:07,38.47,38.47,38.32,38.32, 17360
03/09/2020,20:08,38.32,38.33,38.15,38.16, 26731
03/09/2020,20:09,38.16,38.17,38.05,38.05, 35588
03/09/2020,20:10,38.055,38.06,37.96,38, 26044
03/09/2020,20:11,37.99,37.995,37.88,37.885, 18349
03/09/2020,20:12,37.885,38.01,37.88,38, 37349
03/09/2020,20:13,37.995,37.995,37.95,37.955, 26175
03/09/2020,20:14,37.955,37.97,37.94,37.95, 18015
03/09/2020,20:15,37.945,38.04,37.945,37.98, 41091
03/09/2020,20:16,37.96,37.99,37.9,37.905, 22372
03/09/2020,20:17,37.91,37.92,37.76,37.77, 26317
03/09/2020,20:18,37.78,37.87,37.75,37.856, 28817
03/09/2020,20:19,37.85,38.04,37.85,38.01, 64291
03/09/2020,20:20,38.015,38.08,37.97,38, 61155
03/09/2020,20:21,38.005,38.17,37.92,37.93, 46504
03/09/2020,20:22,37.93,38.01,37.89,37.96, 40646
03/09/2020,20:23,37.96,38.03,37.954,38, 37441
03/09/2020,20:24,37.995,38.01,37.98,37.99, 24361
03/09/2020,20:25,37.994,38.07,37.99,38.04, 72169
03/09/2020,20:26,38.035,38.04,37.98,38.025, 91741
03/09/2020,20:27,38.025,38.045,37.95,38.04, 53590
03/09/2020,20:28,38.04,38.06,37.98,38.01, 35925
03/09/2020,20:29,38,38.15,37.97,38.065, 64260
03/09/2020,20:30,38.065,38.08,37.99,38, 34672
03/09/2020,20:31,38,38,37.95,37.99, 28067
03/09/2020,20:32,37.99,38.06,37.96,37.99, 38522
03/09/2020,20:33,37.98,38.01,37.97,37.985, 15876
03/09/2020,20:35,38.15,38.175,38.14,38.165, 8271
03/09/2020,20:36,38.17,38.32,38.13,38.18, 39467
03/09/2020,20:37,38.16,38.19,38.14,38.155, 26279
03/09/2020,20:38,38.155,38.21,38.155,38.195, 26979
03/09/2020,20:39,38.2,38.52,38.197,38.5, 50868
03/09/2020,20:40,38.5,38.51,38.5,38.505, 60449
03/09/2020,20:41,38.505,38.51,38.47,38.47, 64784
03/09/2020,20:42,38.47,38.54,38.47,38.535, 57656
03/09/2020,20:43,38.53,38.7,38.53,38.699, 64839
03/09/2020,20:44,38.705,38.76,38.68,38.75, 66308
03/09/2020,20:45,38.75,38.85,38.735,38.76, 83774
03/09/2020,20:46,38.74,38.75,38.72,38.735, 45551
03/09/2020,20:47,38.735,38.74,38.73,38.74, 47672
03/09/2020,20:48,38.735,38.74,38.73,38.735, 42371
03/09/2020,20:49,38.735,38.76,38.73,38.75, 53226
03/09/2020,20:49,38.755,38.775,38.75,38.755, 46997
03/09/2020,20:50,38.75,38.76,38.7,38.7, 74505
03/09/2020,20:51,38.7,38.715,38.61,38.62, 68440
03/09/2020,20:52,38.61,38.61,38.42,38.455, 46607
03/09/2020,20:52,38.46,38.46,38.25,38.27, 47370
03/09/2020,20:53,38.275,38.275,38.26,38.265, 18152
03/09/2020,20:53,38.26,38.27,38.09,38.095, 58240
03/09/2020,20:54,38.1,38.19,38.1,38.115, 65465
03/09/2020,20:55,38.114,38.12,37.82,37.85, 97844
03/09/2020,20:55,37.858,37.88,37.79,37.875, 83050
03/09/2020,20:56,37.875,37.95,37.85,37.91, 73416
03/09/2020,20:57,37.915,37.92,37.45,37.45, 132811
03/09/2020,20:58,37.445,37.46,37.1,37.105, 158865
03/09/2020,20:58,37.105,37.27,37.1,37.25, 121940
03/09/2020,20:59,37.26,37.41,37.19,37.28, 115949
03/09/2020,20:59,37.29,37.29,37.2,37.23, 99100
03/09/2020,21:00,37.23,37.69,37.23,37.69, 100953
03/09/2020,21:02,37.69,37.76,37.59,37.6, 1379692
03/10/2020,14:31,40.05,40.12,40.03,40.08, 600
03/10/2020,14:32,39.85,40.34,39.78,40.04, 3300
03/10/2020,14:32,40.22,40.45,40.14,40.23, 3100
03/10/2020,14:33,40.22,40.5,40.22,40.34, 2900
03/10/2020,14:33,40.32,40.41,40.24,40.24, 3074
03/10/2020,14:34,40.23,40.45,40.23,40.23, 15428
03/10/2020,14:35,40.205,40.26,39.02,39.04, 66527
03/10/2020,14:35,39.18,39.21,38.57,38.66, 50895
03/10/2020,14:36,38.6,38.61,38.25,38.37, 43754
03/10/2020,14:36,38.39,38.98,38.39,38.88, 27818
03/10/2020,14:37,38.925,39.045,38.72,39.045, 54711
03/10/2020,14:38,39.045,39.26,38.93,38.93, 35972
03/10/2020,14:38,38.96,39.09,38.79,39.04, 51123
03/10/2020,14:39,39.01,39.05,38.75,38.85, 20369
03/10/2020,14:39,38.85,38.885,38.75,38.79, 15000
03/10/2020,14:40,38.79,38.83,38.68,38.69, 21093
03/10/2020,14:40,38.68,38.705,38.061,38.145, 41283
03/10/2020,14:41,38.11,38.19,37.92,38.02, 73791
03/10/2020,14:42,37.93,37.94,37.51,37.51, 51644
03/10/2020,14:43,37.51,37.78,37.41,37.75, 86693
03/10/2020,14:43,37.755,37.79,37.52,37.565, 74982
03/10/2020,14:44,37.54,37.55,37.34,37.419, 33867
03/10/2020,14:45,37.4,37.46,37.36,37.36, 44432
03/10/2020,14:45,37.37,37.39,37.08,37.16, 34098
03/10/2020,14:46,37.12,37.16,36.91,36.96, 66402
03/10/2020,14:46,36.98,36.98,36.71,36.925, 20609
03/10/2020,14:47,36.95,37.04,36.85,36.96, 38996
03/10/2020,14:47,36.96,36.979,36.875,36.91, 19676
03/10/2020,14:48,36.895,36.96,36.78,36.955, 22753
03/10/2020,14:49,36.94,37.06,36.87,36.88, 42591
03/10/2020,14:50,36.89,37.07,36.81,36.81, 56762
03/10/2020,14:52,36.85,36.86,36.51,36.615, 41414
03/10/2020,14:53,36.625,37.1,36.62,37.04, 20677
03/10/2020,14:54,37.02,37.439,37.01,37.375, 21144
03/10/2020,14:55,37.37,37.51,37.37,37.44, 33100
03/10/2020,14:56,37.474,37.71,37.45,37.505, 44148
03/10/2020,14:57,37.49,37.8,37.36,37.735, 26392
03/10/2020,14:57,37.765,38.06,37.765,38.06, 26020
03/10/2020,14:58,38.119,38.48,38.07,38.39, 30023
03/10/2020,14:59,38.395,38.5,38.2,38.24, 21535
03/10/2020,15:00,38.24,38.25,38.06,38.17, 28242
03/10/2020,15:00,38.155,38.19,38.02,38.11, 17885
03/10/2020,15:01,38.16,38.25,38.14,38.2, 10475
03/10/2020,15:02,38.2,38.55,38.2,38.43, 25112
03/10/2020,15:03,38.46,38.65,38.38,38.65, 19057
03/10/2020,15:03,38.66,38.92,38.638,38.92, 15089
03/10/2020,15:04,38.898,39.03,38.8,39, 31850
03/10/2020,15:05,39,39.01,38.79,38.96, 21402
03/10/2020,15:06,39,39.12,38.93,39.03, 21777
03/10/2020,15:06,39.03,39.05,38.87,38.89, 14188
03/10/2020,15:07,38.9,39.13,38.87,39.13, 18316
03/10/2020,15:08,39.15,39.36,39.12,39.33, 21635
03/10/2020,15:09,39.33,39.63,39.33,39.55, 23142
03/10/2020,15:10,39.55,39.635,39.515,39.6, 13652
03/10/2020,15:10,39.6,39.605,39.44,39.51, 23514
03/10/2020,15:11,39.505,39.59,39.42,39.55, 16011
03/10/2020,15:12,39.568,39.78,39.56,39.69, 16183
03/10/2020,15:13,39.71,39.77,39.54,39.73, 18214
03/10/2020,15:14,39.76,39.9,39.73,39.8, 13222
03/10/2020,15:14,39.83,39.9,39.74,39.87, 21909
03/10/2020,15:15,39.88,39.9,39.6,39.6, 43781
03/10/2020,15:16,39.62,39.62,39.52,39.59, 21824
03/10/2020,15:17,39.53,39.59,39.35,39.385, 27718
03/10/2020,15:18,39.39,39.44,39.29,39.29, 33524
03/10/2020,15:19,39.27,39.27,39.16,39.18, 27147
03/10/2020,15:19,39.18,39.241,39.17,39.18, 8300
03/10/2020,15:20,39.16,39.299,39.16,39.299, 32223
03/10/2020,15:21,39.285,39.34,39.27,39.33, 17555
03/10/2020,15:22,39.354,39.6,39.31,39.6, 6071
03/10/2020,15:23,39.54,39.62,39.49,39.61, 8532
03/10/2020,15:23,39.6,39.66,39.56,39.64, 29782
03/10/2020,15:24,39.63,39.64,39.51,39.52, 15706
03/10/2020,15:25,39.52,39.6,39.43,39.6, 32435
03/10/2020,15:26,39.6,39.6,39.53,39.53, 12305
03/10/2020,15:27,39.5,39.5,39.295,39.35, 21638
03/10/2020,15:28,39.344,39.38,39.28,39.3, 27322
03/10/2020,15:29,39.305,39.32,39.28,39.28, 18314
03/10/2020,15:30,39.24,39.28,39,39.07, 73490
03/10/2020,15:31,39.08,39.09,39.01,39.03, 14365
03/10/2020,15:32,39.01,39.03,38.95,38.95, 27647
03/10/2020,15:32,38.94,38.97,38.845,38.865, 29557
03/10/2020,15:33,38.86,38.95,38.86,38.91, 8047
03/10/2020,15:34,38.91,39.05,38.87,39.02, 16873
03/10/2020,15:35,39.08,39.39,39.05,39.35, 9590
03/10/2020,15:35,39.37,39.55,39.33,39.55, 12638
03/10/2020,15:36,39.56,39.71,39.49,39.56, 12515
03/10/2020,15:37,39.57,39.67,39.49,39.5, 7737
03/10/2020,15:38,39.49,39.501,39.3,39.32, 16918
03/10/2020,15:39,39.32,39.47,39.32,39.44, 12136
03/10/2020,15:40,39.43,39.48,39.42,39.48, 6032
03/10/2020,15:41,39.48,39.62,39.45,39.57, 7174
03/10/2020,15:42,39.57,39.62,39.48,39.57, 14063
03/10/2020,15:43,39.605,39.79,39.605,39.66, 9835
03/10/2020,15:44,39.66,39.66,39.53,39.54, 4360
03/10/2020,15:45,39.54,39.55,39.47,39.47, 10076
03/10/2020,15:46,39.46,39.48,39.375,39.375, 5408
03/10/2020,15:51,39.394,39.43,38.92,38.96, 62609
03/10/2020,15:52,38.96,38.96,38.73,38.8, 31038
03/10/2020,15:53,38.8,38.84,38.61,38.63, 12715
03/10/2020,15:54,38.63,38.63,38.55,38.57, 26948
03/10/2020,15:55,38.58,38.63,38.46,38.605, 20755
03/10/2020,15:55,38.59,38.68,38.58,38.62, 17560
03/10/2020,15:56,38.61,38.61,38.52,38.53, 6690
03/10/2020,15:57,38.54,38.71,38.54,38.71, 12350
03/10/2020,15:58,38.8,38.94,38.745,38.88, 13189
03/10/2020,15:58,38.9,38.9,38.64,38.69, 5078
03/10/2020,15:59,38.715,38.715,38.665,38.69, 7086
03/10/2020,16:00,38.75,38.75,38.65,38.68, 15728
03/10/2020,16:01,38.665,38.7,38.57,38.58, 10754
03/10/2020,16:01,38.61,38.65,38.575,38.59, 6285
03/10/2020,16:04,38.59,38.65,38.56,38.61, 5943
03/10/2020,16:05,38.635,38.75,38.635,38.64, 4574
03/10/2020,16:06,38.63,38.66,38.49,38.49, 5194
03/10/2020,16:06,38.46,38.58,38.455,38.56, 6461
03/10/2020,16:07,38.58,38.709,38.56,38.709, 6891
03/10/2020,16:10,38.7,38.93,38.67,38.87, 9479
03/10/2020,16:11,38.87,38.91,38.78,38.78, 8120
03/10/2020,16:12,38.78,38.8,38.57,38.57, 7965
03/10/2020,16:12,38.567,38.605,38.41,38.44, 8310
03/10/2020,16:13,38.44,38.67,38.39,38.67, 8288
03/10/2020,16:14,38.64,38.69,38.64,38.645, 3583
03/10/2020,16:15,38.64,38.65,38.47,38.55, 15572
03/10/2020,16:16,38.57,38.62,38.439,38.439, 8552
03/10/2020,16:16,38.46,38.57,38.415,38.57, 8069
03/10/2020,16:17,38.57,38.62,38.53,38.575, 6094
03/10/2020,16:18,38.55,38.6,38.55,38.55, 11225
03/10/2020,16:18,38.55,38.575,38.48,38.48, 6803
03/10/2020,16:19,38.46,38.46,38.23,38.23, 13273
03/10/2020,16:20,38.27,38.37,38.24,38.33, 12472
03/10/2020,16:20,38.33,38.38,38.31,38.38, 8526
03/10/2020,16:21,38.37,38.45,38.365,38.365, 8207
03/10/2020,16:22,38.37,38.38,38.33,38.37, 6440
03/10/2020,16:22,38.4,38.456,38.34,38.37, 21860
03/10/2020,16:23,38.37,38.38,38.33,38.37, 16217
03/10/2020,16:24,38.365,38.39,38.255,38.26, 7133
03/10/2020,16:25,38.24,38.25,38.14,38.2, 22223
03/10/2020,16:25,38.2,38.205,38.043,38.1, 30840
03/10/2020,16:26,38.11,38.12,38.08,38.103, 28838
03/10/2020,16:26,38.103,38.103,37.95,38.005, 17269
03/10/2020,16:27,38.005,38.02,37.91,38, 25100
03/10/2020,16:28,38,38,37.85,37.935, 9836
03/10/2020,16:29,37.96,38.01,37.925,38.01, 37761
03/10/2020,16:29,38.02,38.09,38.015,38.065, 14790
03/10/2020,16:30,38.05,38.065,37.77,37.77, 5586
03/10/2020,16:31,37.72,37.75,37.57,37.625, 10772
03/10/2020,16:32,37.64,37.655,37.45,37.5, 6557
03/10/2020,16:33,37.515,37.651,37.5,37.53, 8311
03/10/2020,16:34,37.51,37.55,37.44,37.47, 12817
03/10/2020,16:34,37.47,37.54,37.43,37.43, 20316
03/10/2020,16:35,37.41,37.46,37.37,37.42, 10827
03/10/2020,16:36,37.4,37.44,37.35,37.435, 8861
03/10/2020,16:37,37.435,37.435,37.32,37.375, 8405
03/10/2020,16:37,37.375,37.43,37.35,37.35, 3143
03/10/2020,16:38,37.365,37.365,37.231,37.231, 17635
03/10/2020,16:40,37.255,37.255,37.1,37.14, 17045
03/10/2020,16:40,37.13,37.429,37.13,37.385, 16907
03/10/2020,16:41,37.36,37.46,37.31,37.43, 14809
03/10/2020,16:42,37.41,37.47,37.31,37.46, 12099
03/10/2020,16:43,37.48,37.55,37.47,37.47, 20299
03/10/2020,16:43,37.485,37.635,37.47,37.635, 6122
03/10/2020,16:44,37.64,37.87,37.64,37.845, 3304
03/10/2020,16:45,37.87,37.97,37.81,37.9, 5748
03/10/2020,16:46,37.97,38.03,37.93,37.955, 43254
03/10/2020,16:46,37.92,38.04,37.89,38.03, 5602
03/10/2020,16:47,38.06,38.27,38.01,38.27, 6882
03/10/2020,16:48,38.255,38.305,37.75,37.78, 45701
03/10/2020,16:48,37.75,37.75,37.44,37.44, 27541
03/10/2020,16:49,37.42,37.5,37.35,37.46, 9043
03/10/2020,16:50,37.475,37.54,37.475,37.5, 4017
03/10/2020,16:51,37.505,37.515,37.32,37.34, 23950
03/10/2020,16:51,37.36,37.4,37.09,37.13, 9683
03/10/2020,16:52,37.15,37.22,37,37.04, 18058
03/10/2020,16:53,37.04,37.055,36.91,36.965, 22205
03/10/2020,16:54,36.96,37,36.94,36.94, 14250
03/10/2020,16:55,36.94,36.97,36.9,36.92, 16663
03/10/2020,16:56,36.92,36.97,36.9,36.955, 10986
03/10/2020,16:57,36.96,36.975,36.75,36.83, 15741
03/10/2020,16:58,36.82,36.86,36.64,36.67, 16532
03/10/2020,16:59,36.66,36.93,36.65,36.93, 21936
03/10/2020,17:00,36.94,37.04,36.79,36.9, 29509
03/10/2020,17:02,36.88,36.989,36.805,36.97, 9145
03/10/2020,17:03,36.975,37.039,36.96,36.975, 65172
03/10/2020,17:04,36.98,36.98,36.82,36.89, 20577
03/10/2020,17:07,36.86,36.975,36.835,36.89, 28963
03/10/2020,17:08,36.89,37.025,36.88,37, 16354
03/10/2020,17:10,37,37.01,36.9,36.91, 52856
03/10/2020,17:11,36.915,36.94,36.53,36.785, 24530
03/10/2020,17:12,36.83,36.97,36.83,36.95, 23892
03/10/2020,17:13,36.98,37.01,36.88,36.89, 28210
03/10/2020,17:14,36.905,36.95,36.87,36.9, 50862
03/10/2020,17:15,36.9,37.12,36.85,36.97, 32191
03/10/2020,17:16,36.96,37.04,36.81,36.9, 84156
03/10/2020,17:17,36.9,36.96,36.855,36.88, 35149
03/10/2020,17:18,36.87,36.89,36.53,36.63, 29051
03/10/2020,17:20,36.6,36.789,36.535,36.74, 29662
03/10/2020,17:21,36.78,36.87,36.778,36.87, 6960
03/10/2020,17:22,36.855,36.949,36.855,36.89, 82812
03/10/2020,17:23,36.89,36.9,36.715,36.85, 19943
03/10/2020,17:24,36.83,37,36.81,37, 4241
03/10/2020,17:25,37.03,37.06,36.86,36.9, 27891
03/10/2020,17:26,36.89,36.91,36.75,36.85, 10218
03/10/2020,17:27,36.87,37,36.62,36.71, 57650
03/10/2020,17:29,36.63,36.92,36.61,36.91, 19523
03/10/2020,17:30,36.91,36.98,36.7,36.79, 23368
03/10/2020,17:31,36.76,36.8,36.67,36.69, 5620
03/10/2020,17:32,36.725,36.78,36.69,36.775, 10705
03/10/2020,17:33,36.76,36.83,36.64,36.64, 19747
03/10/2020,17:35,36.665,36.69,36.1,36.103, 70260
03/10/2020,17:36,36.12,36.14,35.85,36.07, 40915
03/10/2020,17:38,36.07,36.1,35.94,35.997, 36274
03/10/2020,17:39,36,36.11,35.91,36.05, 84477
03/10/2020,17:41,36.05,36.14,35.971,36.02, 78246
03/10/2020,17:42,36.015,36.135,35.811,35.92, 41376
03/10/2020,17:44,35.9,36.11,35.86,35.97, 32311
03/10/2020,17:46,35.955,36.615,35.955,36.615, 29312
03/10/2020,17:47,36.63,36.77,36.55,36.64, 35114
03/10/2020,17:49,36.64,36.675,36.5,36.55, 21615
03/10/2020,17:51,36.545,36.63,36.48,36.51, 41659
03/10/2020,17:53,36.51,36.74,36.49,36.69, 24154
03/10/2020,17:55,36.653,36.85,36.63,36.825, 14347
03/10/2020,17:57,36.83,36.98,36.81,36.95, 30957
03/10/2020,17:58,36.95,37.2,36.91,37.2, 22064
03/10/2020,18:00,37.2,37.47,37.2,37.435, 56608
03/10/2020,18:02,37.425,37.45,37.3,37.3, 23868
03/10/2020,18:04,37.3,37.3,37.03,37.11, 34657
03/10/2020,18:05,37.06,37.1,37.02,37.06, 28995
03/10/2020,18:07,37.065,37.12,36.88,36.99, 16878
03/10/2020,18:09,36.997,37.12,36.96,37.1, 20990
03/10/2020,18:11,37.1,37.22,37.07,37.22, 28567
03/10/2020,18:12,37.22,37.265,37.145,37.17, 15012
03/10/2020,18:13,37.17,37.25,37.09,37.1, 25010
03/10/2020,18:15,37.115,37.24,37.05,37.2, 19146
03/10/2020,18:17,37.21,37.305,37.07,37.07, 33873
03/10/2020,18:19,37.05,37.21,36.93,37.21, 25629
03/10/2020,18:20,37.25,37.25,36.92,36.92, 22536
03/10/2020,18:22,36.92,37.01,36.88,36.9, 29765
03/10/2020,18:24,36.9,37.017,36.89,36.95, 22786
03/10/2020,18:26,36.965,37.04,36.56,36.57, 34963
03/10/2020,18:28,36.58,36.61,36.47,36.5, 36230
03/10/2020,18:30,36.5,36.53,36.44,36.48, 50659
03/10/2020,18:32,36.465,36.59,36.45,36.59, 24373
03/10/2020,18:33,36.57,36.6,36.41,36.57, 70205
03/10/2020,18:35,36.585,36.75,36.56,36.75, 30939
03/10/2020,18:36,36.75,36.99,36.73,36.985, 36094
03/10/2020,18:37,36.98,37.08,36.92,36.96, 46132
03/10/2020,18:38,36.96,36.96,36.76,36.92, 22642
03/10/2020,18:39,36.9,37.12,36.9,37.11, 7970
03/10/2020,18:40,37.12,37.19,36.89,36.97, 43864
03/10/2020,18:41,36.99,37.28,36.99,37.24, 17466
03/10/2020,18:42,37.21,37.21,37,37.02, 10156
03/10/2020,18:43,37.01,37.24,37,37.22, 18356
03/10/2020,18:44,37.24,37.35,37.16,37.16, 28934
03/10/2020,18:45,37.16,37.243,36.93,36.93, 15677
03/10/2020,18:46,36.93,36.96,36.81,36.92, 15507
03/10/2020,18:47,36.93,37,36.7,36.76, 17241
03/10/2020,18:48,36.76,36.88,36.74,36.85, 22150
03/10/2020,18:49,36.87,37.03,36.84,37.03, 11272
03/10/2020,18:50,37.02,37.09,36.955,36.97, 11205
03/10/2020,18:51,36.97,37.06,36.95,36.98, 7171
03/10/2020,18:52,36.98,37.02,36.96,37.02, 12067
03/10/2020,18:53,37.02,37.02,36.92,36.995, 32353
03/10/2020,18:54,37,37.045,36.9,36.92, 20031
03/10/2020,18:55,36.92,37.01,36.9,37, 11000
03/10/2020,18:56,37.03,37.03,36.965,36.965, 6043
03/10/2020,18:57,36.98,36.99,36.88,36.88, 10816
03/10/2020,18:58,36.86,36.92,36.83,36.92, 11346
03/10/2020,18:59,36.92,37.03,36.905,36.99, 10499
03/10/2020,19:00,36.97,37.06,36.82,36.83, 19462
03/10/2020,19:01,36.82,36.82,36.51,36.57, 18436
03/10/2020,19:02,36.56,36.69,36.535,36.69, 11995
03/10/2020,19:03,36.695,36.9,36.69,36.86, 7710
03/10/2020,19:04,36.865,37.02,36.865,36.98, 10415
03/10/2020,19:05,36.98,37.041,36.94,37, 9853
03/10/2020,19:06,36.97,37.076,36.96,37.06, 4331
03/10/2020,19:07,37.06,37.18,37.02,37.18, 7158
03/10/2020,19:08,37.22,37.28,36.97,37.02, 37922
03/10/2020,19:09,37.06,37.17,37.04,37.17, 10302
03/10/2020,19:10,37.2,37.255,37.06,37.2, 52021
03/10/2020,19:11,37.225,37.32,37.17,37.19, 21781
03/10/2020,19:12,37.2,37.45,37.2,37.425, 12787
03/10/2020,19:13,37.415,37.528,37.38,37.46, 9005
03/10/2020,19:14,37.46,37.6,37.44,37.51, 12989
03/10/2020,19:15,37.5,37.58,37.42,37.44, 23818
03/10/2020,19:16,37.44,37.66,37.44,37.61, 19910
03/10/2020,19:17,37.6,37.6,37.37,37.42, 22169
03/10/2020,19:18,37.43,37.47,37.35,37.46, 23516
03/10/2020,19:19,37.49,37.64,37.46,37.51, 20763
03/10/2020,19:20,37.52,37.53,37.35,37.43, 18880
03/10/2020,19:21,37.45,37.51,37.4,37.46, 20655
03/10/2020,19:22,37.46,37.61,37.445,37.56, 11886
03/10/2020,19:23,37.56,37.76,37.56,37.65, 13804
03/10/2020,19:24,37.65,37.65,37.53,37.53, 13283
03/10/2020,19:25,37.52,37.555,37.36,37.38, 22265
03/10/2020,19:26,37.39,37.55,37.38,37.51, 13335
03/10/2020,19:27,37.52,37.56,37.43,37.47, 21538
03/10/2020,19:28,37.475,37.77,37.475,37.77, 19364
03/10/2020,19:29,37.823,37.98,37.8,37.94, 34060
03/10/2020,19:30,37.93,38.06,37.92,38.06, 90584
03/10/2020,19:31,38.1,38.125,37.85,37.85, 18953
03/10/2020,19:32,37.84,38.01,37.81,38, 20041
03/10/2020,19:33,38,38.12,37.99,38.12, 17895
03/10/2020,19:34,38.115,38.365,38.11,38.365, 28243
03/10/2020,19:35,38.365,38.46,38.32,38.39, 23088
03/10/2020,19:36,38.39,38.43,38.365,38.365, 20651
03/10/2020,19:37,38.37,38.64,38.36,38.619, 33658
03/10/2020,19:38,38.62,38.69,38.59,38.61, 13153
03/10/2020,19:39,38.61,38.675,38.555,38.675, 39158
03/10/2020,19:40,38.68,38.736,38.634,38.634, 27233
03/10/2020,19:41,38.635,38.7,38.6,38.685, 24785
03/10/2020,19:42,38.71,39.07,38.71,39.04, 28211
03/10/2020,19:43,39.04,39.25,38.99,39.07, 36636
03/10/2020,19:44,39.06,39.17,38.94,39.03, 46468
03/10/2020,19:45,39.01,39.16,39,39.05, 18385
03/10/2020,19:46,39.02,39.055,38.87,38.89, 23963
03/10/2020,19:47,38.87,38.95,38.77,38.81, 16775
03/10/2020,19:48,38.81,38.99,38.77,38.99, 14896
03/10/2020,19:49,38.97,39.07,38.95,39.06, 28206
03/10/2020,19:50,39.02,39.124,38.84,38.87, 23257
03/10/2020,19:51,38.88,38.92,38.55,38.55, 23039
03/10/2020,19:52,38.55,38.56,37.82,37.885, 28368
03/10/2020,19:53,37.89,38.095,37.82,38.06, 26084
03/10/2020,19:54,38.11,38.48,37.97,38.47, 46087
03/10/2020,19:55,38.47,38.74,38.44,38.695, 23994
03/10/2020,19:56,38.7,38.91,38.695,38.865, 24236
03/10/2020,19:57,38.86,39.044,38.86,39.044, 13158
03/10/2020,19:58,39.02,39.03,38.92,38.94, 13774
03/10/2020,19:59,38.93,38.94,38.77,38.94, 12951
03/10/2020,20:00,38.96,39.17,38.94,39.15, 9726
03/10/2020,20:01,39.16,39.26,39.11,39.195, 24757
03/10/2020,20:02,39.21,39.22,39.08,39.17, 20752
03/10/2020,20:03,39.16,39.17,38.99,39.135, 14690
03/10/2020,20:04,39.14,39.42,39.13,39.38, 16038
03/10/2020,20:05,39.39,39.58,39.39,39.48, 16198
03/10/2020,20:06,39.5,39.63,39.48,39.61, 18883
03/10/2020,20:07,39.62,39.7,39.62,39.625, 10626
03/10/2020,20:08,39.629,39.76,39.58,39.64, 14926
03/10/2020,20:09,39.64,39.77,39.57,39.74, 16551
03/10/2020,20:10,39.73,39.78,39.69,39.77, 14658
03/10/2020,20:11,39.77,39.97,39.77,39.97, 20457
03/10/2020,20:12,39.96,40.16,39.96,40.14, 14642
03/10/2020,20:13,40.145,40.265,40.13,40.17, 15164
03/10/2020,20:14,40.16,40.21,40.08,40.21, 17112
03/10/2020,20:15,40.195,40.26,40.19,40.2, 24063
03/10/2020,20:16,40.205,40.23,40.14,40.165, 17975
03/10/2020,20:17,40.185,40.26,40.17,40.24, 16069
03/10/2020,20:18,40.25,40.43,40.25,40.42, 11181
03/10/2020,20:19,40.42,40.42,40.325,40.41, 23380
03/10/2020,20:20,40.435,40.65,40.42,40.59, 23018
03/10/2020,20:21,40.58,40.7,40.56,40.56, 17762
03/10/2020,20:22,40.54,40.58,40.5,40.5, 14785
03/10/2020,20:23,40.46,40.53,40.44,40.52, 10901
03/10/2020,20:24,40.51,40.53,40.44,40.47, 7855
03/10/2020,20:25,40.47,40.48,40.15,40.2, 24195
03/10/2020,20:26,40.19,40.32,40.15,40.185, 31953
03/10/2020,20:27,40.17,40.265,40.16,40.22, 22263
03/10/2020,20:28,40.22,40.22,40.1,40.11, 16941
03/10/2020,20:29,40.11,40.42,40.105,40.41, 15303
03/10/2020,20:30,40.385,40.39,40.15,40.15, 24630
03/10/2020,20:31,40.15,40.18,40.02,40.08, 24270
03/10/2020,20:32,40.07,40.22,40.05,40.06, 30285
03/10/2020,20:33,40.055,40.13,39.94,39.97, 28219
03/10/2020,20:34,39.97,39.97,39.72,39.78, 43972
03/10/2020,20:35,39.78,39.95,39.78,39.83, 29410
03/10/2020,20:36,39.82,39.83,39.76,39.78, 14462
03/10/2020,20:37,39.79,39.89,39.78,39.86, 24747
03/10/2020,20:38,39.86,39.86,39.705,39.75, 26029
03/10/2020,20:39,39.76,39.77,39.67,39.705, 32392
03/10/2020,20:40,39.7,40.02,39.7,40, 28360
03/10/2020,20:41,40.02,40.215,40.02,40.215, 17893
03/10/2020,20:42,40.225,40.29,40.19,40.26, 27711
03/10/2020,20:43,40.26,40.52,40.26,40.5, 49908
03/10/2020,20:44,40.5,40.7,40.41,40.615, 51532
03/10/2020,20:45,40.62,40.73,40.51,40.62, 40451
03/10/2020,20:46,40.615,40.64,40.41,40.48, 46537
03/10/2020,20:47,40.5,40.57,40.41,40.47, 37289
03/10/2020,20:48,40.435,40.61,40.38,40.61, 24983
03/10/2020,20:49,40.605,40.67,40.46,40.66, 50398
03/10/2020,20:50,40.66,40.78,40.6,40.77, 24139
03/10/2020,20:51,40.78,40.87,40.725,40.84, 38547
03/10/2020,20:51,40.85,40.91,40.83,40.89, 44946
03/10/2020,20:52,40.91,40.92,40.83,40.88, 39753
03/10/2020,20:53,40.88,41.08,40.88,41.07, 71044
03/10/2020,20:54,41.065,41.07,41.04,41.045, 38923
03/10/2020,20:54,41.05,41.14,41.02,41.14, 39255
03/10/2020,20:55,41.125,41.15,41.03,41.045, 33201
03/10/2020,20:56,41.05,41.33,40.96,41.21, 59597
03/10/2020,20:56,41.21,41.3,41.18,41.28, 81556
03/10/2020,20:57,41.29,41.3,41.21,41.265, 78026
03/10/2020,20:58,41.26,41.28,41.23,41.27, 64519
03/10/2020,20:59,41.26,41.44,41.24,41.25, 74713
03/10/2020,21:00,41.26,41.548,41.15,41.535, 118549
